WaveletEnergy,SignalSTD,Kurtosis,BeatType
1131.82562,0.215988742,0.628287812,9
1229.897227,0.175187254,0.941204213,9
976.6203286,0.189837909,0.839639546,9
1165.289714,0.217323293,2.476483617,9
1113.651805,0.205370138,2.478136638,9
1296.617908,0.219394651,0.687504717,9
806.9226387,0.13280455,16.98418987,5
630.4272573,0.114253653,8.942502156,9
1022.208085,0.153491057,3.136889724,9
569.7631899,0.121152177,19.20570385,5
1194.88737,0.18217689,5.913117792,9
1155.127046,0.155730339,10.45434795,11
1288.318959,0.193068451,4.138436033,9
1022.739455,0.183638703,1.99938679,9
967.37172,0.164241113,2.308486723,9
634.56854,0.133994802,2.710240362,9
1255.058122,0.175144106,1.01729621,9
1456.725901,0.220616947,-0.001757724,9
759.673531,0.167455102,1.130506151,9
1664.591958,0.203835027,4.896530901,9
1195.041696,0.177930813,7.409508035,9
773.0043605,0.177025923,0.281772031,9
1004.210413,0.145530708,6.628987488,9
913.2849731,0.122635642,6.869718193,9
1167.646785,0.168675964,7.409653266,9
883.8628456,0.138924197,9.050406359,9
735.8816615,0.112932603,7.81345194,9
1059.67071,0.135690231,7.128678889,9
1198.825167,0.182265161,6.603141843,9
936.7150319,0.185686768,1.345216549,9
775.9957767,0.183197044,1.34663527,9
824.5099301,0.181543187,1.557325107,9
864.2791044,0.188255337,1.206963373,9
917.2255137,0.185270778,1.362976746,9
1241.511445,0.178843995,1.8018846,9
899.3973173,0.170373585,1.935736493,9
794.5991839,0.185106077,1.594776609,9
936.101344,0.181196788,1.169976691,9
864.1636718,0.18093168,1.374530402,9
877.3968215,0.193365148,0.984805739,9
897.8725222,0.181880795,1.099219634,9
891.4584023,0.172450918,1.978317304,9
867.0166558,0.188282022,1.655979342,9
867.7407621,0.165359802,2.300297087,9
977.525518,0.185582934,1.129803569,9
816.5650593,0.184958635,1.804407003,9
861.8675586,0.18606819,1.131100494,9
919.6187581,0.177619072,1.676373432,9
801.0261704,0.189231284,1.411701606,9
896.7224956,0.171050401,1.733820362,9
833.9674309,0.181766408,1.498761738,9
852.2706417,0.185253632,1.90697025,9
741.2250174,0.179975862,1.799640869,9
873.6604828,0.175481431,1.527069894,9
958.4212077,0.180179738,1.469033501,9
862.2583037,0.176658374,1.574887531,9
802.4896998,0.177132197,1.785679656,9
958.176288,0.1793846,1.592337329,9
946.9223419,0.192530627,0.72848968,9
862.3481627,0.180941939,1.431904969,9
789.2285847,0.173259794,2.216139893,9
913.9057867,0.174537591,1.798345474,9
810.2349792,0.168598973,2.287824911,9
871.7539325,0.179527188,1.411514185,9
823.6161278,0.179725864,2.057358516,9
1007.513463,0.181044974,1.715873915,9
933.7403088,0.184912639,1.450624225,9
799.144844,0.179366678,1.997173645,9
804.061733,0.183827513,1.724195741,9
819.6285898,0.179879162,1.895424081,9
922.6794405,0.183395518,1.21085836,9
1128.735302,0.189089656,1.992870461,9
887.6765732,0.20120188,1.003743604,9
933.6447862,0.191158838,1.134493921,9
932.8763829,0.179579394,1.413742212,9
932.4303934,0.19079215,1.119154788,9
927.2538704,0.192090356,1.239376126,9
948.9734824,0.181992535,1.448260762,9
850.5432075,0.176158367,2.157363179,9
933.7676672,0.193594659,1.482624418,9
990.3626947,0.183780789,1.695593983,9
842.4673653,0.169038631,2.027435134,9
887.1913985,0.168154607,1.934665182,9
967.5212371,0.188478227,1.449682122,9
1029.367238,0.190390645,1.360342926,9
1054.742627,0.185218948,1.703546339,9
844.6078167,0.188212168,1.311887685,9
934.042822,0.185458767,1.654668357,9
887.1100055,0.188245216,1.675957981,9
887.3041047,0.174590487,1.6225439,9
953.986406,0.172068649,1.795065533,9
951.7606024,0.185097921,1.912013768,9
930.4106834,0.178823069,1.781821732,9
977.1976259,0.179104101,1.384991381,9
929.7498399,0.182879174,1.681243901,9
867.798202,0.178927274,2.148776126,9
909.6319279,0.178874336,1.778750108,9
785.4374977,0.164739581,2.398679962,9
797.2760249,0.142641122,4.701323811,11
919.8194305,0.18631739,1.882354756,11
1017.45427,0.18945346,1.396308037,9
1514.361852,0.181466947,1.87826973,11
984.9981364,0.215949867,0.848219939,9
918.8096046,0.207269248,1.498710319,9
919.6594542,0.207492281,1.317302025,9
842.9580923,0.209254555,1.012761746,9
978.4613885,0.224076381,0.865129997,9
943.4761477,0.200137579,1.490377958,9
918.7011346,0.20186631,2.196255612,9
885.8021328,0.22035764,1.477738515,9
995.3940485,0.211638603,3.101636753,9
1024.02622,0.214742378,2.327184357,9
908.4047988,0.218701513,2.167887663,9
950.8551228,0.240889617,1.352686895,9
956.5188421,0.208127115,1.430357342,9
1123.02961,0.203355107,1.409522938,9
966.9891916,0.214054049,1.166048146,9
936.6007525,0.21135416,1.182409899,9
910.7169818,0.205094443,1.505652599,9
1166.348148,0.174438675,8.752126504,11
1577.180171,0.18182826,1.513486989,9
1581.869047,0.240975793,-0.402734946,9
1086.437402,0.164719458,3.009279727,9
2145.923299,0.249702853,-0.148771203,9
2047.83748,0.23216819,0.591278298,9
2102.510734,0.264169257,-0.217804987,9
1355.460578,0.225482042,0.505531679,9
1328.549649,0.218297875,0.158226147,9
1709.912782,0.2568435,-0.314362712,9
1929.890741,0.25145245,-0.494816135,9
2006.237131,0.25932379,-0.362144597,9
1097.734342,0.206080901,0.544223497,9
1199.624822,0.189253326,0.894749533,9
1938.246379,0.260589448,-0.618470057,9
2397.837616,0.282346406,-0.681421499,9
3310.452667,0.257015887,-0.638057399,9
820.5739863,0.134902846,20.02301895,11
808.6195441,0.13129052,26.52598506,11
820.2969947,0.136557531,20.13588115,11
771.1593915,0.131634389,19.92518641,11
749.4474113,0.127906842,27.40352152,11
707.0662252,0.127837792,26.99119803,11
721.4653993,0.125291448,26.44631229,11
698.7325158,0.12696988,25.59722477,11
734.0298929,0.127626967,25.52516374,11
673.3678885,0.12532328,26.78867704,11
1192.575762,0.178614158,2.628820996,9
1304.708791,0.180399117,2.528914414,9
1235.989107,0.258401348,-0.777320035,9
1043.551497,0.226872498,0.344413122,9
1208.725855,0.232300642,0.230573002,9
1202.716368,0.232728164,0.16383124,9
906.748421,0.196879573,1.348484839,9
1000.97101,0.220969037,0.682351232,9
975.131253,0.221786622,0.643506057,9
1964.799294,0.239726458,0.083487883,9
1222.630345,0.182345728,2.014755237,9
1253.039354,0.181230218,2.32311683,9
1267.84982,0.181227473,2.448951013,9
2124.675021,0.238906069,1.752502592,9
1617.356549,0.198145474,6.373380743,9
1313.536912,0.208015065,1.650732529,9
1735.419522,0.241001124,-0.159669393,9
1456.917981,0.213109513,1.354975438,9
1143.732515,0.253066158,-0.771909738,9
1213.393868,0.227368002,0.699862433,9
1321.996989,0.234975217,0.407910999,9
1174.138458,0.241869405,0.003823956,9
1969.237362,0.263483443,-0.512282159,9
332.3237832,0.237782788,-0.70506871,9
2022.155709,0.278312202,-1.041732491,9
1133.193149,0.218891025,2.209777731,9
1975.85904,0.235497755,0.89942807,9
1718.672118,0.217176717,1.154625291,11
1271.255005,0.224954934,2.0698535,9
832.1186155,0.171674639,4.900909579,11
1002.563764,0.180151259,4.717995691,11
832.2287206,0.142060693,15.42761017,11
1015.107696,0.168876369,6.031944576,11
1094.437402,0.178922816,5.778297275,9
1395.436231,0.183623861,4.862020751,11
1114.730413,0.203001542,1.860404164,9
1051.402047,0.167926116,7.374199559,11
1536.773235,0.191811257,4.753285665,11
1447.486181,0.219465942,1.050536895,9
1004.231376,0.200625702,2.912152688,9
1581.40813,0.197489307,2.537433913,11
1450.725748,0.175710508,2.900652239,11
1209.567974,0.206517169,2.433225264,9
1830.670727,0.247326562,0.953765107,9
1401.848229,0.175201363,3.77829102,11
1605.087244,0.199161658,2.700135379,11
1437.388916,0.183369559,3.353352447,11
1400.431045,0.180340937,6.065891272,11
940.8400518,0.155621583,10.19512189,11
1540.803414,0.197382713,4.415347499,11
1630.731024,0.2015324,4.782518212,11
1548.510242,0.196491627,4.239448003,11
1552.37524,0.191614727,4.349563701,11
1748.629165,0.204262829,4.554994521,11
1726.966822,0.200752942,4.621193734,11
1545.732749,0.196436083,3.15392402,11
1288.470932,0.195351346,4.500754282,9
1435.137212,0.186128506,5.043244878,11
2106.084124,0.235686917,1.205223554,9
1293.099379,0.200511412,4.268500739,9
1098.421493,0.204105853,2.610978329,9
1541.042751,0.198088878,3.604793016,11
1878.222697,0.222038046,1.501014212,11
1375.793842,0.172847653,5.063600969,11
1587.655305,0.201741218,4.688202732,11
1082.041047,0.203742417,2.25078177,9
1918.565785,0.232719136,0.388301545,9
1691.50785,0.201791296,4.686133504,11
1625.065321,0.204030123,4.548472167,11
2213.483382,0.249696607,0.492261352,9
1677.759582,0.200999164,4.259465511,11
1777.146382,0.207917275,4.452243179,11
1016.143356,0.15696659,11.19631905,11
1288.340866,0.203620812,3.609796721,9
1031.434591,0.211107838,1.863931363,9
1567.608212,0.200763081,3.811617361,11
1192.301601,0.190250679,4.74462413,9
1100.963555,0.183765784,4.362784387,9
1214.87728,0.189484578,4.653019128,11
955.4939699,0.173160615,4.90252433,9
763.7797169,0.141400673,9.694185341,11
1411.537267,0.181628977,4.908894129,11
1438.891128,0.182345494,3.872331076,11
1682.331569,0.197427033,3.877616288,11
1217.905374,0.207780917,3.229381634,9
1647.190127,0.196991233,3.931454464,11
1468.631143,0.186807853,3.822330781,11
1408.498583,0.182311454,4.898298921,11
1523.320361,0.188742351,4.382059451,11
1507.655484,0.188054608,3.620158794,11
1532.032317,0.194792971,3.308720519,11
1528.49972,0.190763633,4.30175279,11
1557.23813,0.192750749,3.927404367,11
1336.531082,0.22207212,2.83531364,9
1441.042683,0.233514235,2.706008028,9
2290.041665,0.253036885,0.94886059,9
1103.884517,0.173835036,7.537388911,11
1582.105025,0.196038927,4.304227874,11
1618.949904,0.194743339,4.165352162,11
1529.712662,0.191941321,2.84694486,11
1545.752254,0.194104089,3.438256889,11
1521.328583,0.188758803,4.003204915,11
1431.098751,0.18699797,4.056891974,11
1526.093495,0.184077115,5.519089707,11
776.5855959,0.128451436,24.48161097,11
1384.690171,0.206230525,4.019224463,9
1431.092346,0.184013986,3.994745162,11
1208.55572,0.176149108,6.324687861,11
1160.079677,0.202740763,2.355805436,9
1508.501254,0.190534256,3.121229454,11
1621.935373,0.197680315,4.546576651,11
1440.449378,0.183797188,4.336267134,11
1601.180023,0.198254609,4.535687663,11
1474.503885,0.186153545,4.007662948,11
1599.451555,0.198112061,2.648820963,11
1512.847377,0.190488878,3.672587368,11
1464.897218,0.180777441,3.845882471,11
1615.570621,0.195474716,3.908921107,11
1516.507021,0.189775151,3.923881406,11
1430.326703,0.184406378,4.064430635,11
1593.65413,0.194033844,3.68149409,11
1501.69191,0.186876287,3.888489841,11
1613.499472,0.191900744,3.697046001,11
1587.822305,0.194382772,3.360423712,11
1558.493762,0.18808763,3.847412307,11
1609.575769,0.197819384,3.185918357,11
1432.151809,0.185089255,3.952647616,11
1802.580792,0.213140711,1.798151434,11
1642.739119,0.199657166,4.113833411,11
1149.324634,0.210845559,1.991928266,9
1365.887051,0.181970902,4.551509085,11
1130.326252,0.162624805,11.68070703,11
1504.684494,0.177795606,4.231016281,11
1194.534006,0.226584653,2.962022622,9
1214.117135,0.164175551,8.692272004,11
1161.011809,0.222717302,3.274215921,9
1229.576116,0.217645204,1.783383638,9
1209.20419,0.221118173,2.978549008,9
1326.293241,0.204477041,3.359717993,9
1239.692504,0.215211149,3.399451329,9
1164.24615,0.20558855,2.483755572,9
1306.957876,0.210195579,2.371519865,9
1270.774169,0.207401776,3.779826319,9
1384.61469,0.238773362,2.122693456,9
1212.927212,0.229205298,2.705860834,9
1203.371124,0.2253187,3.49907751,9
1070.72449,0.162419271,9.364899487,11
1462.971024,0.212351121,3.047258812,9
1354.450634,0.227849244,2.705959672,9
952.9226953,0.142063431,17.04982995,11
1266.316183,0.212455283,2.195925313,9
1618.293541,0.240639937,2.335857173,9
1299.422481,0.210677217,3.193670497,9
1599.438575,0.241522886,1.98460498,9
1047.137965,0.1625496,8.96711198,11
999.3033869,0.147245368,12.09832966,11
1074.471683,0.217437889,3.135725944,9
1295.704675,0.223671517,3.112436057,9
1300.217038,0.217348407,1.851518142,9
1430.898707,0.186051835,5.089838804,11
1110.790849,0.20041307,4.125829169,9
1643.772225,0.229096298,1.060619781,9
1129.440072,0.2035073,3.248062029,9
1334.809647,0.228719454,2.113584064,9
1471.615671,0.182572463,4.164758814,11
1375.04479,0.22565077,1.790173384,9
1074.274392,0.160155978,12.28302262,11
795.7952693,0.150870513,9.905564402,11
921.961002,0.154301528,8.148287329,11
1096.026213,0.184698028,4.59197152,11
565.8487617,0.125157725,12.35032928,11
865.9594967,0.155217189,9.834310157,11
1073.882073,0.162309755,10.32636547,11
895.6037367,0.140809507,15.75709905,11
846.5533144,0.134129057,22.29863104,11
1150.569696,0.157130521,7.945361028,11
894.0477332,0.154413344,13.07057723,11
1185.986347,0.168745122,5.179121572,11
751.3073938,0.133499527,15.75419914,11
684.506808,0.124150359,25.88064016,11
691.222904,0.123125038,26.93145929,11
1160.789297,0.172386883,7.437558166,11
1052.915676,0.173273817,5.08179904,11
794.0486533,0.135961212,12.64734716,11
796.8390956,0.148016884,5.921351174,11
1016.502912,0.208367395,0.713841667,9
809.7549586,0.155392374,10.52169519,11
743.9221623,0.130823599,22.86347939,11
950.8564107,0.170088111,6.828820991,11
849.8196336,0.188297143,2.556455884,11
1257.110625,0.182810353,6.274935552,11
1088.250102,0.159300736,10.89441225,11
833.3152986,0.136111828,18.64711744,11
829.4697059,0.140720211,14.37612025,11
1267.612046,0.210489412,0.872759351,9
1035.042204,0.190811192,4.296266471,9
1700.950592,0.200553968,1.916217893,11
1071.918657,0.189649489,3.010519289,9
744.1862549,0.131526609,24.96637077,11
1047.392151,0.1940918,2.695909473,9
1102.330328,0.174831669,6.368179478,11
1101.422691,0.170406749,7.06901036,11
834.4109838,0.132230114,24.31976944,11
1061.80762,0.167119674,9.162751969,11
841.7120246,0.135892541,19.02919719,11
983.7689565,0.190289702,3.40526681,9
869.1788335,0.143648835,16.96861565,11
1134.898923,0.196804362,2.423492172,9
1185.962699,0.20344832,1.659915386,9
556.1140856,0.287051682,-1.065215913,9
1048.128913,0.168384146,9.292392737,11
1196.611189,0.181143119,5.871221027,11
866.9292098,0.140668924,18.23313299,11
861.8110754,0.138087078,21.2363931,11
1066.823227,0.20083917,2.338246127,9
1319.239048,0.185502198,4.213710257,11
1049.544075,0.16506202,9.746691705,11
1036.504973,0.168419925,7.216603756,11
989.9633509,0.146448241,16.74628751,11
813.9727061,0.129484344,27.36829142,11
1530.857923,0.235394136,1.885902426,9
1108.201553,0.190520651,2.983706908,9
907.1315482,0.142861834,18.24278443,11
859.8555091,0.133997147,19.70175704,11
821.7077713,0.141849169,17.09153688,11
745.8099051,0.127589513,28.02893715,11
927.5308231,0.191075627,1.632266444,9
1387.657786,0.185015434,3.323581806,11
1255.467096,0.205922101,4.172394256,9
897.5840862,0.150888134,10.06195682,11
768.3922934,0.137186378,21.83329844,11
975.828988,0.200497584,1.964549117,9
1298.745048,0.217079102,2.153145297,9
732.9104662,0.126316375,27.57903947,11
840.9673595,0.139686724,19.68811141,11
1188.182209,0.194285166,2.889855168,9
840.2296393,0.141389568,16.47114572,11
679.5939124,0.139771796,14.85187138,11
1032.930498,0.169442936,7.593861856,11
829.4164016,0.134677274,23.07737439,11
1051.205987,0.178511076,4.956080401,11
868.6819114,0.138911947,15.84262701,11
975.9868373,0.154410661,11.41255974,11
594.5371989,0.128911758,14.27565704,11
919.1224966,0.163259507,7.819053286,11
1155.066495,0.202229677,2.645999586,11
961.6647907,0.156140046,11.52128994,11
862.5111801,0.150915202,8.139752006,11
1243.228128,0.213679417,0.538908118,9
868.8014284,0.155702132,6.375500612,11
1301.726309,0.213617071,2.1389922,9
1466.827221,0.229940925,2.354647187,9
1431.865921,0.189009984,2.907778384,11
1043.380953,0.19797241,3.824509713,9
1325.523223,0.208438172,2.181224649,9
1646.793601,0.21175915,1.540684988,11
1151.680206,0.205680344,4.135830211,9
1034.290257,0.170889712,6.409972239,11
1038.953868,0.159516334,9.688125088,11
1049.500006,0.169101878,6.336054609,11
1534.234984,0.194418111,3.039705003,11
1596.577281,0.20299902,1.751122143,11
1138.572879,0.218419043,1.536938826,9
1189.12282,0.218372751,3.242522295,9
1611.973298,0.208816759,1.701185367,11
1153.529134,0.203307369,3.399917505,9
1329.821559,0.212416039,1.993507471,9
1236.531127,0.211254683,1.804399395,9
1328.489828,0.223166052,1.844200996,9
1257.353112,0.21739517,2.184245429,9
1297.526922,0.213698927,2.95557703,9
1240.788748,0.214648987,1.809355754,9
1343.486483,0.180006864,4.228411969,11
1107.697688,0.19610897,4.208953488,9
1222.05917,0.216190211,3.062830408,9
1227.847513,0.209643849,2.265565837,9
1342.931644,0.21992953,1.43813814,9
1140.33158,0.178425331,5.866005764,11
1188.161931,0.219490339,2.987233244,9
1350.199591,0.203781661,2.49894122,9
1480.068329,0.215914911,2.069413538,9
1252.653158,0.208983726,3.631031271,9
1271.739745,0.226641501,3.206578084,9
1202.487111,0.214441732,1.970297002,9
1038.546695,0.213040611,3.269625712,9
1285.073984,0.220759162,3.165162221,9
1326.357207,0.212404162,2.207091465,9
1328.158395,0.20510126,2.443456724,9
1051.339977,0.201477975,3.922355488,9
1225.901379,0.206592229,1.753820365,9
621.4559497,0.12865584,6.984563009,11
878.6180196,0.149947958,5.698537875,11
866.8495298,0.150677598,5.720874211,11
1347.34007,0.179736374,4.290270557,11
1291.992395,0.179713243,3.981165208,11
1689.253507,0.215578336,1.84244741,9
1345.991484,0.184086886,3.690129313,11
1228.245398,0.169641248,6.114552599,11
879.3638945,0.147481548,6.312987542,11
1094.516169,0.160799516,6.399430216,11
787.114418,0.144953735,6.063704165,11
856.9060786,0.156136962,4.702636602,11
850.766265,0.144337969,8.651647124,11
924.275827,0.158923852,4.997770099,11
1157.485784,0.159450971,8.745975742,11
948.0792445,0.148138579,9.20047562,11
1121.12746,0.160981601,7.587609302,11
887.7156833,0.146524337,8.963598452,11
1155.318311,0.165956983,6.615210572,11
1271.300518,0.175378286,5.023365836,11
1430.534612,0.209238223,1.935734682,9
1316.698927,0.18320942,4.05702422,11
1201.125536,0.163831076,6.787087141,11
1265.944441,0.167803258,6.716904014,11
1068.733948,0.160008458,5.904458868,11
1167.9866,0.161824843,6.918400341,11
920.6833967,0.151986194,5.995104472,11
899.0073907,0.152337979,6.465839727,11
894.4565666,0.147440691,7.422507491,11
1083.385971,0.157104107,8.092214225,11
1198.352005,0.167965786,5.885640099,11
1112.639118,0.16121356,6.3617875,11
885.6151305,0.1487933,7.807092902,11
911.2291767,0.15088555,7.363766864,11
837.3133117,0.146171204,6.973832418,11
953.7790475,0.151546332,8.488063643,11
1104.406925,0.157904791,7.813744373,11
1427.849452,0.205911628,2.340389024,9
1576.694686,0.210043633,2.476463092,9
1355.033357,0.183331777,4.037176747,11
856.5040075,0.149816326,5.644938758,11
1267.713825,0.174002051,4.744046509,11
931.6997911,0.151820432,6.98551967,11
815.5861842,0.143941138,7.718373893,11
1231.977053,0.167740648,6.713170911,11
1356.601925,0.183240676,4.24667394,11
1441.168326,0.19556991,3.423818343,11
895.2233416,0.148673073,6.966448306,11
907.7113111,0.144730923,9.174253009,11
1362.899557,0.184315543,4.269409879,9
1527.554902,0.205513882,2.666008014,9
957.6372226,0.151022303,7.097833473,11
1135.702041,0.163227976,7.103996934,11
950.2527643,0.158005349,5.448505488,11
1051.86915,0.157310092,7.227650029,11
1050.749915,0.157427481,6.989340461,11
1297.384766,0.177671506,4.486169201,9
1501.364863,0.210668604,1.86053009,9
1220.917029,0.167534301,5.94066339,11
1017.817502,0.154454982,8.603409237,11
1083.894423,0.153683965,9.555088843,11
1167.191598,0.161150685,8.223718409,11
1286.040125,0.178939148,4.491410756,11
1238.374871,0.16907196,7.508347778,11
986.620223,0.157012484,5.992077336,11
1039.101951,0.16357852,4.419558758,11
1132.908432,0.164483566,5.61810846,11
1120.974554,0.157163481,9.122337358,11
1405.137812,0.202887392,3.302557582,9
1013.897223,0.163714544,3.304234507,11
822.3379513,0.144699784,6.200891012,11
1460.681417,0.211374017,2.043883791,9
1448.197746,0.192599818,3.455746558,11
1143.227217,0.163657304,6.426366472,11
1011.893872,0.159114046,5.69404765,11
902.9029788,0.151426485,5.178995636,11
968.9831951,0.15745557,6.258620864,11
1186.131809,0.162247673,7.324453976,11
990.4970333,0.153631518,7.001105331,11
1202.682266,0.174084166,4.846889807,11
1170.023969,0.161792878,8.186691039,11
1238.91761,0.164145447,7.755082773,11
1190.382652,0.163712549,6.997172071,11
1071.89997,0.158694079,6.234766618,11
915.0706247,0.151847647,5.824417932,11
978.056917,0.155107443,7.425571179,11
1231.406554,0.169009224,5.999198685,11
1231.786758,0.168012127,5.543471568,11
1324.830347,0.182137256,3.586321242,11
1047.121042,0.156620924,6.243875033,11
1766.176828,0.219694301,1.243007693,9
994.7229672,0.145401273,9.770993052,11
746.8320029,0.142750934,5.896187922,11
1226.426072,0.169418593,5.646413575,11
1522.831873,0.210218634,2.315277561,9
1277.355093,0.17337913,5.389250678,11
1084.715076,0.161346502,5.993198381,11
1294.177781,0.175007149,5.508067598,11
1386.669098,0.20878509,1.736475451,9
907.4774774,0.151016714,5.709756602,11
681.2234136,0.13670249,6.489746426,11
1215.349843,0.171173468,5.298839198,11
1233.558164,0.171523058,5.209692816,11
1394.456098,0.176661958,6.296779192,11
1357.500185,0.203224053,2.270467699,9
877.1973983,0.150763832,6.82297203,11
873.9292554,0.150058407,6.113134984,11
1383.51428,0.187249254,3.986020582,9
1484.027864,0.207440418,2.559147661,9
1392.874128,0.204745798,2.453027349,9
1199.476734,0.164781128,6.308212395,11
1345.438297,0.198186257,2.716726131,9
1354.328839,0.182501264,4.852619331,9
949.5527946,0.151303996,6.878758934,11
1412.944496,0.204792927,2.732753689,9
723.1519602,0.140274743,5.741577892,11
1492.903391,0.204284724,2.500059331,9
1007.778824,0.15054346,7.526480536,11
1520.069705,0.200884455,3.349489866,9
1500.605637,0.193323798,4.414115068,9
1149.539317,0.161147772,7.659725189,11
1332.669383,0.174666689,6.879115472,11
1090.333536,0.155592633,9.312024322,11
1273.631449,0.170437493,7.842185121,11
1321.174592,0.168860006,7.612251943,11
1494.07956,0.205663743,3.246597929,9
1543.389309,0.20331226,4.275281098,9
964.7092737,0.147217268,11.05521865,11
1219.41384,0.163508866,9.188033663,11
1170.522943,0.160231594,8.912422182,11
1350.809596,0.177383146,5.303689933,11
989.4255954,0.153374462,7.228593064,11
956.5442448,0.152649835,7.07418837,9
1573.589319,0.194255361,4.081711875,9
1222.596054,0.170597774,4.709060201,11
968.2905893,0.155062318,6.083226486,11
1277.652534,0.170585214,6.785606472,11
976.6163476,0.151200422,7.096464495,11
1268.82487,0.173746208,4.987871292,11
1149.063881,0.159668237,7.499285295,11
979.3495198,0.152454749,6.411247879,11
1013.192286,0.155867908,6.878372728,11
1143.91325,0.165605718,5.371703467,11
1067.968074,0.15972295,5.608809589,11
853.5566248,0.146351308,6.364381862,11
906.1462365,0.14977204,5.524996386,11
1181.265015,0.164761569,6.121553755,11
1501.304944,0.200294673,2.820005555,9
1405.18306,0.205577181,1.922065153,9
1359.357321,0.183633824,4.298460266,11
1445.625354,0.188142967,4.098893492,9
1411.346983,0.200103532,2.461071195,9
1327.01771,0.174735979,5.553114168,11
1143.937241,0.164189788,5.691311206,11
1422.053292,0.19771159,2.760841083,9
921.4785653,0.152747654,4.660849023,11
812.4840181,0.143894255,6.372352179,11
1085.677441,0.15982029,6.614193519,11
1506.714726,0.199668243,3.067362621,9
1454.135589,0.194575523,3.631357347,9
1007.669529,0.154850345,7.581871488,11
1136.704287,0.16312361,6.54187342,11
1354.130784,0.185382509,4.104984676,11
1224.333166,0.167451742,6.466339833,11
1504.619864,0.202869887,2.698957003,11
767.2725912,0.140884325,6.818752929,11
997.4503247,0.157278049,6.544183888,11
887.3113861,0.150381669,6.544049201,11
1421.610131,0.203464477,2.320500514,9
1186.63231,0.166068304,6.05342218,11
1426.692965,0.195406966,2.962138682,9
1061.757616,0.158747716,6.309978238,11
1210.871279,0.169203116,6.514423376,11
1134.45211,0.157993889,7.130675104,11
994.3628679,0.153311546,7.796686127,11
1541.50845,0.197864098,3.959779009,9
1249.987567,0.171286389,5.164951932,11
1182.436677,0.163065081,8.580786718,11
1222.138868,0.167576913,6.593015184,11
1361.097973,0.184555291,4.249123909,11
1369.541722,0.206976212,1.997036652,9
1113.170005,0.16105674,6.666569961,11
1127.133253,0.160440118,7.690801016,11
1351.998233,0.202521623,2.232919238,9
1420.984929,0.207163807,2.378327348,9
1382.512332,0.204758531,1.930721698,9
1454.016632,0.214888885,1.750423389,9
1143.08009,0.165058488,5.044359634,11
894.3115485,0.153397932,6.859096205,11
947.6178656,0.150415967,7.770154895,11
1127.234137,0.157210628,8.134094976,11
1176.949194,0.159342892,9.130573139,11
1042.428671,0.154281601,8.418851995,11
1152.747406,0.1609906,8.766828891,11
848.270342,0.14390741,9.92929232,11
1071.646292,0.153874515,10.20897393,11
1228.411295,0.163049698,9.30647351,11
993.2783775,0.144596318,10.47278356,11
937.9528356,0.151980735,6.884376159,11
1152.315575,0.159575253,8.53852729,11
1192.205623,0.160425894,7.075614133,11
1204.674177,0.166983626,6.72300911,11
943.9822093,0.15069851,7.178882722,11
1238.740555,0.170805732,6.320421154,11
893.6048544,0.147367875,7.562776485,11
1126.902023,0.159523999,9.134239846,11
953.6291833,0.152483885,8.599483296,11
1369.839748,0.185423883,4.543305624,11
1446.882172,0.211978071,2.267180117,9
1205.203654,0.164436806,7.38567694,11
1001.044827,0.152900321,7.956734914,11
1474.886904,0.214261429,2.074832141,9
1625.952599,0.191601606,3.95622485,11
1633.542137,0.207235074,3.468213615,9
1189.370805,0.182569343,3.736605034,11
1256.673922,0.164622583,7.972059056,11
1095.471625,0.155213175,7.34828423,11
1404.917614,0.183922639,4.370191064,9
1451.202594,0.196316711,3.019926432,9
1252.010347,0.168048164,6.106603006,11
1044.279587,0.155299597,7.188329914,11
1121.590719,0.161950144,6.39887463,11
1071.187879,0.154839883,7.06219506,11
1421.708143,0.189096145,4.031770561,11
1404.577108,0.191083824,3.923076625,11
1223.01242,0.167617481,6.493044288,11
1234.825401,0.165346908,7.924681928,11
1259.649836,0.164190125,7.838318971,11
1383.313155,0.18529242,4.458197778,11
1281.123906,0.173585509,5.790950019,11
1102.608756,0.160065326,6.330248211,11
1077.709227,0.15597352,8.31187379,11
1306.672209,0.17523928,5.534655955,11
1414.217822,0.202641255,2.711107707,9
1032.920537,0.152008214,7.463474857,11
1452.765668,0.209501424,1.879415198,9
1305.369079,0.180075063,4.571950696,9
1474.295217,0.191086145,4.915572875,9
1124.876843,0.157323694,7.822491589,11
935.5314365,0.149270845,9.21685467,11
928.1227252,0.145765942,8.520023321,11
1131.324591,0.161563398,7.614851426,11
1145.698001,0.161748291,7.308672519,11
1509.294604,0.209388396,2.818166334,9
1463.081154,0.207902239,2.417526393,9
1528.868234,0.1950063,4.168182145,11
916.0557768,0.148220771,8.945150129,11
1141.092563,0.161444367,7.793198554,11
1402.488062,0.186503867,3.99422192,9
1424.131436,0.203684679,2.40858709,9
1401.598634,0.177034157,5.096414489,11
1075.31849,0.158029062,8.152958604,11
995.0387196,0.159041138,5.360204813,11
855.2858649,0.147387893,8.3766191,11
1480.542762,0.183184358,5.410170884,11
1480.168761,0.204360995,2.627146437,9
1407.444822,0.182070975,6.338046792,11
877.9184635,0.145494914,9.126070365,11
1025.052297,0.149361161,12.15232535,11
1402.473675,0.178671431,7.407687944,11
1543.045881,0.206426497,3.027793846,9
842.1241442,0.144939272,7.920178514,11
1308.349032,0.176366405,5.3427128,11
1582.284976,0.213994286,2.727398206,9
1480.640745,0.193156501,3.602441024,9
917.2348533,0.150222007,8.355200928,11
1459.789025,0.196710296,3.218373998,9
1135.613367,0.159219707,7.997632585,11
1372.910652,0.183758546,4.555395593,11
1419.250304,0.190514057,3.754155378,11
1489.454887,0.215619525,1.833655607,9
1258.871374,0.178728369,3.89901166,11
994.1842606,0.150834443,9.214504795,11
1500.961778,0.201761725,2.618103125,9
1550.115726,0.212829912,2.279310214,9
1552.018144,0.199482081,2.979716799,11
1702.749428,0.20693974,3.479314953,9
1400.018219,0.183824887,4.157811656,11
1007.544592,0.160818767,5.639066476,11
1389.286108,0.200942069,3.087128641,9
873.0434484,0.146285021,6.232495121,11
1396.800728,0.177268173,5.009358869,11
1260.814046,0.166370746,7.074703449,11
1366.399878,0.181628092,3.329991061,11
1153.911469,0.188859957,1.868015767,11
1477.689754,0.191855105,3.286317606,11
1157.331363,0.175443637,3.766061009,11
1411.682133,0.21038289,1.259830968,9
1520.690868,0.203039511,2.224046629,11
1403.598058,0.182962665,4.490264867,11
1266.049592,0.160353874,7.936508284,11
1177.335344,0.161397304,7.907209236,11
1205.618541,0.166990993,6.339042296,11
1477.180527,0.219849521,1.022631851,9
1481.280553,0.189843506,3.251590696,11
1507.043174,0.207202776,1.842521768,9
1394.477509,0.194423537,3.267939895,11
1135.85049,0.163375183,5.72941288,11
1078.530235,0.160194254,6.860882013,11
1652.323237,0.201271569,3.231212035,9
1068.29518,0.182705797,1.753361922,9
1001.881533,0.154060283,8.003363496,11
1615.084969,0.199582058,3.887934077,9
1003.197959,0.16727785,4.338656989,11
1556.416119,0.205491595,2.079338073,9
1112.535107,0.155792007,10.43015416,11
1559.243262,0.204273436,3.61028586,9
1447.168082,0.207952942,2.366122274,9
1338.662189,0.174360396,6.041863538,11
1201.048646,0.168021781,6.185534345,11
909.0960839,0.154816465,5.703743858,11
977.7841545,0.174780273,2.677466594,11
1418.772303,0.188841209,3.375640446,11
1397.612068,0.186587007,4.031218566,11
1468.120384,0.205502133,2.989405466,9
1485.347767,0.208395529,2.47947058,9
1293.36502,0.17133076,6.071383864,11
1428.756974,0.206563478,1.910201517,9
1529.572726,0.200368687,2.906090506,9
1310.317741,0.178989228,3.538214781,11
1261.822398,0.185011542,2.707859106,11
982.3955697,0.166727381,3.301422158,11
876.2491783,0.147117657,4.789161744,11
1246.892979,0.174339078,4.664023307,11
1224.686662,0.16641465,5.352876514,11
1535.753419,0.205605262,2.401805274,9
1243.818578,0.172394456,5.809816797,11
1137.121097,0.164123651,5.941404444,11
1546.52388,0.206028093,2.28592602,9
1474.330117,0.202369568,3.291765958,9
881.0770203,0.145659081,9.46092942,11
2026.506395,0.208719973,2.927168803,9
1203.274284,0.162021317,7.968734951,11
1060.780065,0.15962324,7.390043823,11
1204.477014,0.162271271,8.359349347,11
1188.927364,0.16920166,6.623420902,11
1224.33396,0.166895729,6.343825665,11
1313.766798,0.175392628,4.608046567,11
989.8982157,0.162010185,6.372929599,11
1021.053596,0.150978149,9.531405676,11
1409.828941,0.205042738,2.543100979,9
922.1709229,0.150250385,7.037236481,11
769.5123245,0.138413551,7.101898342,11
883.1394341,0.152660415,7.577046325,11
1334.4159,0.171015667,7.050388377,11
1416.29261,0.204272688,2.247520648,9
1119.01649,0.166448312,5.317638264,11
1330.429986,0.20619112,1.926042605,9
1272.235843,0.17034609,6.204333582,11
1402.199801,0.193872921,3.452350282,11
1492.109768,0.201431949,3.412139877,11
968.3399611,0.167268603,4.396278504,11
1386.474904,0.181659298,5.316836163,11
885.6618653,0.167692589,2.636348862,11
1113.047983,0.16029036,7.344551164,11
1204.270447,0.189264568,2.57195435,11
1255.329467,0.172848281,4.991380702,11
1303.964379,0.215724738,0.916370433,9
1003.641506,0.157168936,7.162787147,11
1415.684704,0.178421473,6.55107376,11
1397.735667,0.200502644,3.278545473,9
1501.40812,0.198448136,4.002237977,11
1378.761259,0.202489847,2.671226735,9
1523.466314,0.200908184,3.810317005,11
1516.999001,0.205645525,3.206911195,9
1235.113809,0.167107542,8.161394058,11
1479.200007,0.194569605,4.152636731,11
1079.219466,0.15723149,8.996417799,11
1482.072625,0.194494553,3.671034974,11
1264.394218,0.170338718,6.748735527,11
1353.498186,0.217010813,1.210802023,9
1395.59449,0.184114425,4.197871406,11
1517.823177,0.208033057,2.500079345,9
1172.707277,0.169343539,5.543394981,11
1130.214559,0.166211987,6.392762073,11
1214.074287,0.167555784,6.722909768,11
1169.145328,0.168867954,5.370374187,11
1481.170374,0.188090431,5.1739605,11
1502.302599,0.21419008,2.031045696,9
1261.653114,0.172154278,7.15315036,11
999.2374655,0.150163632,9.786170757,11
1596.227587,0.209009753,2.780543723,9
956.0069767,0.1515954,8.436660924,11
1186.012932,0.168597066,5.531499805,11
1370.042832,0.206106317,2.164024316,9
1047.496449,0.15696537,6.798801901,11
1440.290206,0.195378807,3.144778972,11
1160.111494,0.17032954,5.250300543,11
1579.453794,0.205983254,2.951781413,9
1285.538511,0.223816261,0.521407373,9
1108.748828,0.15991246,7.632517099,11
1078.940114,0.158179217,7.019971807,11
1216.504527,0.164127105,8.162795822,11
1660.370364,0.194227514,4.896327184,11
1619.865371,0.207591095,3.061293996,9
1028.396627,0.158855937,5.794420703,11
1364.408416,0.179481249,4.577611066,11
1200.993182,0.176246708,4.014595695,11
1237.165311,0.164566065,7.536250886,11
1541.872557,0.209439967,2.484596356,9
950.9413429,0.154451917,6.968592675,11
1044.015783,0.156185555,8.186976735,11
1385.347889,0.222564402,0.547878882,9
1429.571722,0.185647684,4.395992834,11
1097.855608,0.154616079,8.887119845,11
1221.054219,0.169049715,5.595990361,11
1100.354636,0.159548574,7.022629535,11
1137.777125,0.164008982,6.209156335,11
1782.062032,0.216428599,2.756895373,9
963.6161437,0.156245737,6.577259741,11
1386.101331,0.199104602,2.816577916,9
1351.08395,0.190459552,2.842152778,9
1089.009989,0.164367203,5.372288319,11
1018.066974,0.158252027,5.379887745,11
1551.183754,0.196313723,4.337852371,9
1134.993091,0.165146556,5.785303822,11
983.7627184,0.157182009,5.701333842,11
1583.108629,0.201171196,4.540288321,11
1337.113389,0.174252515,5.281451957,11
1552.248825,0.186847937,5.044858351,11
1130.925301,0.164161822,6.397701633,11
1442.64111,0.2026232,2.831254086,9
644.1177454,0.14112312,1.257554768,11
1521.382164,0.184671415,6.371427918,11
1018.521949,0.161203895,6.366161819,11
1300.516693,0.174296898,5.116937224,11
1433.012794,0.209655389,1.598818187,11
1340.129843,0.181715675,4.457379093,11
1460.778975,0.220715489,1.975059769,9
1326.274669,0.181977714,4.129410611,11
1231.867903,0.175036714,5.87806867,11
1178.458714,0.160870795,7.090605007,11
1480.430994,0.202626671,2.687289041,9
1476.807779,0.194285637,4.007969932,9
1103.486642,0.155812179,8.245288727,11
1399.223535,0.190315582,3.713723854,9
1169.47489,0.162929861,7.808015026,9
1641.584723,0.226593794,1.206872153,9
1385.68207,0.216961801,1.309994705,9
1360.965832,0.20004662,2.992728778,9
1395.364545,0.214487267,1.989992664,9
1474.701909,0.209839103,2.177315652,9
1124.71458,0.159101828,7.398348568,11
1512.255514,0.219172246,1.516392402,9
1464.894132,0.210759625,2.202737866,9
1108.382361,0.158082357,8.701450677,11
993.855813,0.152417592,8.856748989,11
1081.026148,0.15599422,8.988106609,11
851.5901296,0.147700752,8.665514389,11
1488.267099,0.194983727,3.33403235,11
1674.890165,0.216746327,2.501949737,9
1300.533471,0.172125343,6.881671651,11
1327.944511,0.210055842,2.4389562,9
1479.372349,0.208746578,1.886845517,9
970.6837253,0.158108955,6.112787904,11
1508.655898,0.214678657,1.275923754,9
1337.87301,0.210161586,1.938921726,9
817.3520524,0.145918162,8.175641777,11
1643.437731,0.214007366,1.605427237,9
1643.593411,0.217035222,2.1836104,9
834.9354782,0.147222167,7.564694008,11
1034.603412,0.156202492,7.958914753,11
1652.490289,0.210040601,3.325141458,9
1465.53895,0.210324187,1.889903356,9
1121.410614,0.168039678,6.705437661,11
897.1076958,0.145321783,11.28060098,11
1303.658608,0.168471787,7.363775077,11
1414.902355,0.215319749,2.134160982,9
1418.646502,0.187411274,4.65631214,11
1277.310412,0.211348547,1.268203367,9
1501.325128,0.188837803,4.118873319,11
1215.430613,0.172481905,5.053644458,11
1254.51782,0.165573568,6.610729537,11
1422.847338,0.222056092,1.083818579,9
1560.997277,0.195036902,3.32566479,9
1512.63156,0.213380603,1.379552363,9
1645.779971,0.21050565,2.542647994,9
1464.587138,0.214526574,2.077610138,9
1458.386769,0.200168229,2.863908145,9
1344.580544,0.172006563,5.558860406,11
1161.753185,0.172910466,4.280280058,11
1342.670813,0.179269244,5.429981771,11
1416.297375,0.202883488,2.162370581,9
1025.570366,0.156572178,6.706342298,11
1336.675529,0.177950554,4.838127775,11
1535.827775,0.189906377,1.409847578,9
1175.58109,0.195963845,1.467296292,9
1014.491467,0.2259952,0.352540052,9
1467.628768,0.211031077,0.880099678,9
1386.983889,0.198158437,0.955124772,9
1456.152564,0.20398856,1.194707867,9
1857.778587,0.213179094,1.023515186,9
1438.636775,0.204830197,0.959203153,9
1802.834327,0.196902538,1.967403758,9
719.9660764,0.194567867,0.77876187,9
1831.81609,0.20622663,1.202334179,9
971.8273591,0.231864986,0.528816958,9
1178.682919,0.150530917,5.910475559,9
1065.588189,0.177620682,2.01928518,9
1559.961403,0.20960338,0.889547437,9
1511.269288,0.179432804,1.982419285,9
990.2801534,0.204072679,2.014349029,9
810.9767448,0.215481414,0.586276074,9
1509.206242,0.198702185,0.87701616,9
1595.579007,0.19448077,1.608358545,9
1365.936941,0.189852163,1.115825459,9
1296.901949,0.164833883,12.10084124,9
1713.142373,0.185886921,1.029276656,9
1073.823188,0.206092993,0.950033043,9
653.4104896,0.220193686,2.145978672,9
1864.925817,0.200899141,1.026868004,9
2237.278031,0.237457152,-0.051338186,9
1032.190093,0.146965798,4.66288602,9
1671.310836,0.203626222,1.331219123,9
1597.13683,0.181915627,1.698628559,9
1600.511413,0.194971086,1.336498694,9
1481.94721,0.190006993,0.915890252,9
1488.430624,0.173350226,1.650477758,9
1111.038064,0.205934078,1.155659438,9
1271.595585,0.174678943,1.515090419,9
1363.20744,0.165992475,2.169566178,9
1376.974379,0.172137107,1.797247052,9
1331.116869,0.169740202,11.39189583,9
1078.249256,0.197358369,4.438134084,9
1386.316703,0.191976563,1.029146135,9
956.7777845,0.141704288,15.52444658,9
1013.325952,0.212533562,1.015904298,9
1111.296989,0.193770152,4.649022213,9
1469.197635,0.187424664,1.572919216,9
1458.548239,0.202554059,0.96257084,9
1277.816865,0.168213397,1.797540647,9
1353.113608,0.176449076,7.047337497,9
929.8228277,0.148178465,13.4998817,9
1086.330635,0.146905447,13.40197389,9
1213.318548,0.162194333,12.71468604,9
1284.998724,0.162434817,13.41675456,9
1070.484115,0.147389322,10.54075326,9
1390.349902,0.175036492,1.515730591,9
1430.21204,0.212539229,0.886954535,9
1562.729862,0.212203031,0.889461698,9
1597.116306,0.199947702,1.2168978,9
1720.739405,0.200114207,0.961851662,9
1101.685394,0.192615352,5.256068183,9
1495.001153,0.194758457,1.493988518,9
1323.162417,0.190030245,0.892172248,9
1388.333008,0.184767223,1.260104199,9
1033.850809,0.145229393,11.29783835,9
1457.255214,0.182533305,1.289966846,9
1363.137818,0.190026319,1.237761735,9
1436.888067,0.202214218,0.939267628,9
1342.968707,0.190639443,1.11655422,9
1379.602033,0.189405728,1.122095921,9
799.133626,0.195755107,1.118914582,9
1524.048874,0.186792928,1.640426094,9
1377.0078,0.189780159,1.179558785,9
1588.527242,0.193600693,1.424912957,9
951.3102051,0.139936277,10.15085988,9
1488.314495,0.217431753,0.719791675,9
930.1690515,0.143921925,7.98336243,9
874.3197807,0.141446919,4.157255458,9
1532.826136,0.209893644,0.760174798,9
1534.412785,0.190235067,1.645343099,9
1744.879648,0.204821329,1.286736672,9
801.9918175,0.154250968,2.000936566,9
802.7964441,0.149375859,14.40513732,1
1537.167079,0.21782228,0.763643104,9
893.6275257,0.151418721,14.91769673,1
882.6251046,0.1516172,13.93520096,1
817.0001147,0.14649033,15.81814757,1
774.6695899,0.144464106,14.18233949,1
792.7858065,0.142639541,16.28355111,1
818.0278624,0.145582209,16.5660247,1
925.0003244,0.137726726,4.434265128,1
806.4383028,0.145092802,15.36934606,1
790.5636933,0.144884294,15.55248177,1
816.4090039,0.14786657,15.19847547,1
889.7951244,0.155726718,12.59290814,1
857.6443673,0.155505501,13.03002556,1
980.8286646,0.14858847,7.661581708,9
804.7375469,0.144706953,14.39111102,1
861.9255932,0.151014707,14.25714643,1
794.8157638,0.146825487,14.42081594,1
858.7835943,0.149867138,15.61160468,1
889.9245895,0.155986743,13.13827606,1
916.3810289,0.159155075,13.77505047,1
756.3611512,0.150077079,12.22853333,1
805.884392,0.147355468,14.64907891,1
948.0671196,0.152145904,3.835079616,1
917.5086372,0.155172919,14.41757619,1
867.837641,0.153102166,13.77611301,1
837.7861647,0.155944739,11.71405624,1
815.3555805,0.154783545,11.36151964,1
777.6280475,0.145326341,14.18775983,1
777.5917529,0.144885811,12.88790658,1
1140.030261,0.202753701,1.260415314,9
823.8605465,0.149002584,13.4990822,1
747.9073913,0.145596393,12.67615247,1
850.464343,0.158285069,12.05488525,1
896.6558454,0.138174377,4.970772999,1
1399.764149,0.211450976,0.727493223,9
807.0192375,0.147213396,14.14507659,1
735.4775945,0.141300393,14.32317678,1
772.0948165,0.150717036,11.88526864,1
737.6501708,0.148910412,12.33228394,1
815.5029235,0.149639914,12.58758955,1
905.3770245,0.162455396,11.66783593,1
836.1307205,0.154414271,11.83989364,1
788.6843038,0.148523793,12.64201178,1
819.1939626,0.152337007,11.9506873,1
1030.804172,0.159183339,3.306487504,1
1507.582618,0.212637664,0.763820663,9
834.9982461,0.151672924,13.62204814,1
815.8977517,0.149920728,12.47986683,1
826.7954461,0.148621987,14.51672305,1
705.927002,0.139775081,16.32273084,1
739.6215472,0.144850061,13.00481374,1
829.3451966,0.14661158,16.18586846,1
1086.883333,0.151696153,8.450668597,9
950.0551257,0.160228235,13.53027347,1
844.6964546,0.144046903,6.299582306,9
814.94109,0.144717382,16.93857474,1
761.4494651,0.147905396,12.86126388,1
810.5137065,0.15059992,13.82275073,1
731.6373753,0.142025783,15.30482015,1
757.7035997,0.144514433,14.88146206,1
894.2556383,0.154669762,13.83645964,1
833.6483065,0.149157187,15.41930601,1
832.8631458,0.148979481,14.8853267,1
982.0513527,0.152140573,3.65163394,1
1569.170669,0.187801189,1.663862415,9
894.5174587,0.156073372,13.10605729,1
791.4399713,0.151049429,13.18364368,1
931.9825941,0.158467621,13.57557345,1
810.165635,0.149681139,12.53891415,1
944.2385236,0.158386979,12.59102322,1
875.0411794,0.148250454,15.03761759,1
732.5827174,0.140772061,14.90520109,1
746.0947313,0.143196944,13.83889242,1
831.5899774,0.148283093,14.78444976,1
822.9445618,0.153713942,12.11014198,1
782.3298645,0.148899064,13.59191932,1
828.7064694,0.149580685,13.99835742,1
932.8464684,0.156019524,9.466816805,1
896.1917203,0.160571907,1.901219432,9
727.4065285,0.140292991,15.51595838,1
732.7897712,0.147425268,12.13779724,1
763.9524107,0.148470247,11.76663883,1
1551.516756,0.208675401,1.026365918,9
808.4297682,0.147722283,13.97864734,1
731.5449691,0.141415372,13.73057548,1
847.4286628,0.152907229,13.89617493,1
877.1692372,0.155660334,12.52971055,1
923.0180091,0.161428413,10.91763536,1
789.3715208,0.150113823,12.31323286,1
1034.701967,0.160274841,3.648184142,1
1546.508744,0.220357965,0.795615177,9
795.9190391,0.144174753,14.8919493,1
914.191347,0.151832579,14.68080955,1
1023.673288,0.15077154,4.652935578,1
1320.009527,0.193305787,0.999263961,9
915.4295865,0.156991266,13.44632624,1
786.04929,0.145835032,15.70843942,1
753.2035965,0.146307709,13.18136159,1
897.9679614,0.150811109,16.28290767,1
793.117073,0.143224894,17.90678522,1
828.177615,0.1439726,16.68113043,1
795.6256363,0.149715748,13.01278295,1
925.8304911,0.154753911,15.66516907,1
809.7366801,0.148163906,15.11579596,1
822.8838925,0.150684751,13.09442484,1
820.6038269,0.147331127,15.92374599,1
791.9204646,0.146169505,15.07982767,1
775.7721816,0.143707668,15.65855777,1
731.0814887,0.142455095,15.33049551,1
904.8549304,0.155712641,13.83094537,1
985.4984834,0.14601686,4.337497832,1
1361.423433,0.189867042,1.205280771,9
890.901298,0.156281216,13.72034066,1
786.7750164,0.14486977,14.28899966,1
745.9655326,0.141261252,16.48127735,1
772.8798857,0.146056752,14.03685606,1
738.7799727,0.142029425,15.20561487,1
902.6675666,0.137454674,5.412267296,9
789.7811775,0.148401508,14.00889922,1
814.8418654,0.150178901,13.52205921,1
814.5582451,0.152492379,12.62803501,1
749.6700682,0.142494258,14.07024973,1
771.9099347,0.143799483,14.31808796,1
739.2951145,0.143094742,13.48992715,1
750.0756673,0.145463208,13.47775357,1
735.0622221,0.149080502,11.64651601,1
731.6980567,0.156294777,10.58028487,1
844.6463763,0.149969174,14.41880395,1
791.9021448,0.14902442,12.72057088,1
854.038303,0.15431108,11.87696029,1
855.4870705,0.156229454,11.04713648,1
1002.132543,0.145388186,3.155065584,9
794.7596699,0.153405884,11.96432868,1
858.4327596,0.149917604,14.14974605,1
799.0095277,0.145275092,14.70827379,1
847.1300714,0.156383705,12.20550434,1
864.8977997,0.155130797,12.31402304,1
801.2704254,0.152280364,12.17428696,1
835.2725557,0.155967531,10.01591814,1
874.3918543,0.153209612,13.39977586,1
890.6355115,0.153273803,14.66671924,1
744.2364423,0.140662315,14.11049181,1
843.1642089,0.148137045,14.22882008,1
891.0728495,0.156212567,12.88887004,1
1068.075379,0.153283265,8.031602888,9
934.1395861,0.159388918,13.03031296,1
818.9331866,0.154095676,12.05526736,1
786.2586185,0.149586437,11.93242418,1
827.3406629,0.148555316,15.02331765,1
750.8541269,0.145629251,13.76358695,1
736.7482618,0.145249044,13.16811531,1
876.5398723,0.151507752,15.14196805,1
894.9046639,0.155779963,14.31058871,1
799.7942402,0.158800187,9.59088805,1
837.8506927,0.155807905,12.67827003,1
837.1982971,0.152908287,13.50764415,1
740.1747251,0.145572148,12.5452597,1
879.2229567,0.151670058,3.62513776,1
1440.073396,0.205017637,0.893724873,9
806.4284786,0.152463546,12.11114631,1
801.4937461,0.147701326,13.95282757,1
825.3610452,0.157021224,10.90548955,1
741.3391025,0.146625667,12.26532182,1
793.2322315,0.142859857,15.03568424,1
710.1299164,0.141069774,14.43646852,1
761.4114578,0.143785336,13.60062743,1
843.5677864,0.151836153,13.08843972,1
917.2523765,0.147273339,4.381558582,1
1408.507132,0.219290493,0.681413338,9
810.6660703,0.15123396,13.21645873,1
731.7486055,0.144223052,13.00763377,1
800.1982505,0.148030543,12.84241091,1
786.4362291,0.150442284,12.22105487,1
873.3463788,0.155872632,12.5233153,1
877.686977,0.158256461,11.8500891,1
759.574296,0.151760062,11.68472463,1
810.4479321,0.151299786,12.01466471,1
998.2758712,0.1552586,3.705899223,1
1423.331968,0.200194691,0.780648169,9
931.0492491,0.158921398,12.80548626,1
897.5293032,0.158039825,12.34285644,1
852.391793,0.15105927,3.824424916,1
865.4516754,0.149458639,15.73647246,1
809.7230088,0.148249197,14.2044771,1
860.2221501,0.153806536,13.26943759,1
831.9422741,0.149746601,14.37929979,1
806.6016782,0.149169451,13.64470622,1
847.6842543,0.155849361,11.45500943,1
994.5317713,0.160993774,14.04696768,1
946.1344818,0.161736334,13.06674871,1
819.555588,0.148705131,13.88273878,1
817.3128246,0.148004181,15.72831732,1
732.4422228,0.144572524,13.93119672,1
801.5813969,0.147576631,14.85481869,1
909.9938205,0.153037789,15.51629987,1
909.5670265,0.161256816,11.1586592,1
878.0988666,0.156580864,13.37476735,1
809.3925046,0.150802611,13.04361982,1
777.5282232,0.14632632,13.40648584,1
806.8875002,0.147580943,14.37282729,1
736.8685566,0.143959786,13.77313438,1
767.97508,0.144181646,13.10041718,1
1527.921895,0.201821858,0.91115218,9
904.8416823,0.153036381,14.46715323,1
863.3319523,0.151618921,13.25262433,1
727.6626465,0.140584185,13.20121093,1
771.989016,0.144191121,15.29629306,1
753.7968118,0.143950523,13.91424499,1
755.2386929,0.14846028,11.53395652,1
861.4301112,0.159838115,10.70495898,1
887.3019681,0.163324368,10.20218829,1
781.9576783,0.149657959,11.87656233,1
718.6222089,0.142779987,13.19425761,1
823.9713567,0.149507968,12.36536409,1
803.2106691,0.15040379,12.50426448,1
846.8583613,0.155798212,11.77788489,1
864.7822777,0.147368209,2.567452083,9
892.1532515,0.156892965,11.95577947,1
829.0982307,0.143382535,5.649927275,9
830.5944974,0.146944764,14.15322046,1
818.711972,0.150808757,12.88430392,1
811.4679609,0.148568526,13.11543402,1
926.3027949,0.161410284,12.69892048,1
902.6732408,0.136329746,5.100875785,1
1456.528357,0.215856197,0.62853934,9
864.7330659,0.151433952,14.66282738,1
837.8637513,0.150054262,14.92816832,1
727.2893199,0.143501994,13.89114532,1
797.4677163,0.14304559,16.54120945,1
903.0302289,0.157667717,11.45886205,1
1141.642754,0.153080009,7.947657252,9
989.9718051,0.15956886,14.47622655,1
855.1855927,0.150420781,13.54591205,1
802.0272523,0.14545331,14.78090097,1
771.5839854,0.146400709,15.11758307,1
798.8293968,0.151040585,12.60822102,1
810.9000386,0.151176204,13.76437414,1
755.3945863,0.145345469,15.59923194,1
813.3464555,0.151671407,12.73084695,1
803.157262,0.147326783,13.42296924,1
775.9417544,0.143924136,14.67889053,1
735.1220701,0.142081845,13.22821837,1
785.7873779,0.146003041,14.0139872,1
877.9368169,0.152393768,3.893620319,1
1386.726372,0.214249584,0.673964606,9
820.3110089,0.152872109,13.07372747,1
864.6428122,0.156469029,11.73616936,1
896.4626172,0.15973972,10.86722792,1
767.2125646,0.147073865,13.43158772,1
754.2623823,0.1444642,13.90859508,1
855.9317342,0.138754453,3.347352602,9
901.0812886,0.156499122,13.97735801,1
819.922264,0.159324746,9.889861096,1
797.146024,0.157771749,10.35959539,1
771.4841853,0.149608523,12.49474244,1
853.6280283,0.152206196,13.65422094,1
797.4569367,0.150771993,11.77752408,1
776.4236404,0.153946825,11.00310544,1
766.1077366,0.150725674,11.81833834,1
759.7268886,0.15075257,12.15806328,1
893.5229732,0.162704218,10.93114558,1
839.9449481,0.148678115,15.38575482,1
737.824596,0.145280738,12.47750304,1
852.2075996,0.154271356,12.53446293,1
921.6448647,0.16231396,11.79259787,1
877.3547958,0.150049174,3.887405217,1
1296.821012,0.212555167,0.680341133,9
935.920785,0.158212523,13.13407616,1
840.8604935,0.151708169,12.14003447,1
883.0388253,0.159102866,11.89544128,1
953.9216631,0.161880545,12.12190893,1
942.766834,0.164727842,10.19528891,1
830.0594259,0.15980015,10.07687056,1
909.2167784,0.162882095,10.68224562,1
828.2135915,0.147463144,13.8551211,1
861.7281781,0.14754072,15.79554987,1
796.3551968,0.135412585,20.54667914,1
751.9310487,0.13851009,15.52422384,1
890.4824827,0.147402419,18.19270858,1
811.3701079,0.142217465,17.87690181,1
715.1556304,0.143581441,14.77961219,1
833.7921507,0.149126687,17.06690523,1
874.6966412,0.149386211,17.1158403,1
835.1653549,0.147509311,16.25877976,1
762.0954613,0.140966529,17.15027455,1
935.6889126,0.155339413,15.01206079,1
743.8946894,0.150608636,12.19928988,1
916.2591038,0.154867338,15.30296187,1
923.6625488,0.16148896,13.36638504,1
961.3602714,0.162135073,13.00920952,1
809.9864274,0.145425541,16.69872323,1
755.4249102,0.144308941,15.83444898,1
835.1491355,0.151445342,14.57867207,1
764.8023061,0.145267086,16.09813979,1
806.8752501,0.142539638,17.81435846,1
826.2053349,0.146338112,16.15154367,1
697.9291572,0.136035096,17.57238475,1
757.2525638,0.141980574,18.20936172,1
700.4129253,0.141369453,15.96683605,1
751.876726,0.142348414,15.8809363,1
825.120903,0.152822359,13.89733059,1
723.1472621,0.144355627,13.303765,1
735.7405486,0.144369954,15.01235532,1
703.0016286,0.141597339,14.67245587,1
770.8320088,0.144514261,15.40660904,1
744.8171512,0.144354507,14.06370774,1
797.0534122,0.194757989,2.812397973,9
727.4385611,0.143887051,14.27336742,1
783.0778789,0.146913418,14.56307985,1
780.0922677,0.149754066,12.90780893,1
871.1028772,0.155917826,12.8402375,1
813.7476321,0.147632361,14.12634107,1
967.7727373,0.151107392,3.482756572,1
1432.961205,0.18599963,1.38140069,9
813.1422224,0.14958093,13.39495058,1
824.277892,0.147118274,14.02305539,1
820.4680464,0.151175235,13.02701646,1
801.4670516,0.153937817,11.50352065,1
1053.918118,0.159658704,4.881595098,1
1147.509621,0.176069445,1.23735911,9
831.9123691,0.147585413,14.31802271,1
836.8470643,0.152934377,12.42878711,1
819.6177171,0.154147897,11.78360882,1
908.2872825,0.160892108,11.37659755,1
840.2744015,0.150790514,13.09557288,1
942.8915362,0.153488674,16.00072353,1
821.8350633,0.145887076,16.57521186,1
860.5518329,0.152654775,13.16505902,1
1057.361435,0.15405432,4.123950535,1
1401.855692,0.187920718,1.230481779,9
834.6494618,0.149102472,14.67858482,1
807.0769807,0.144166565,18.35950974,1
852.3832571,0.149318845,15.61599906,1
815.0560931,0.145069655,15.61242125,1
762.9352791,0.139975362,18.2171263,1
775.7625689,0.147349182,13.68135508,1
872.7109527,0.152248736,15.15346155,1
813.5780311,0.147297511,15.46246517,1
1117.926237,0.151158998,9.956980971,9
827.776169,0.149748856,15.64940553,1
808.0266347,0.145148181,15.63644552,1
781.8757337,0.14284128,15.47072755,1
721.9688384,0.137937688,17.77612399,1
726.8779375,0.137551877,16.08374981,1
889.6470647,0.156211595,14.17285497,1
1080.125103,0.146154557,8.755364034,9
780.2065571,0.147151294,15.53858366,1
833.233968,0.149944355,14.38251784,1
799.5714326,0.146037732,14.61294141,1
750.2384034,0.14082237,16.6507401,1
765.9073287,0.145383546,15.02742895,1
793.6099618,0.148541064,14.66086582,1
883.407912,0.159893322,11.96917316,1
885.591318,0.163853517,11.08125661,1
748.8750989,0.15045496,12.19977433,1
845.8370021,0.152276147,13.67807674,1
740.2799471,0.14436285,13.18718723,1
812.3014046,0.15060868,12.95983089,1
721.7277121,0.14680955,12.48275573,1
721.9222043,0.146385315,12.7739529,1
742.3996319,0.153578495,10.51966262,1
882.5291012,0.154492949,14.16134942,1
1417.266294,0.202543317,1.30123074,9
871.7489275,0.148978558,15.5957098,1
789.7635348,0.147635612,14.05991511,1
826.30244,0.150410217,14.05658743,1
817.4314645,0.150334455,15.08936134,1
839.433705,0.152853803,13.38965918,1
807.6920574,0.146485902,15.37568752,1
757.1248765,0.144160126,15.24006229,1
754.4148136,0.144157392,14.57148928,1
822.5524506,0.15107145,14.38361597,1
855.6187591,0.15607838,13.04737679,1
841.4082916,0.152902466,13.7795889,1
770.7819233,0.143060716,16.0221477,1
932.8969411,0.153465599,15.60661965,1
850.875732,0.146142779,17.67607417,1
904.4565076,0.15338918,14.2593965,1
794.3404664,0.14789304,13.81633185,1
856.0215137,0.151329175,14.57622564,1
907.6508127,0.136616955,13.67477321,9
862.9013999,0.144420103,17.83978344,1
929.9803018,0.153105237,15.71655091,1
903.5238277,0.150488422,17.16016337,1
753.7888307,0.142802335,17.0355443,1
800.3898734,0.144822916,18.00481948,1
783.3802814,0.134748921,22.1076602,1
935.8581658,0.149299087,18.9816391,1
803.4215853,0.13489884,23.32127058,1
779.6877999,0.137957155,17.91222743,1
896.7772929,0.153148083,14.16040022,1
807.2654397,0.148244961,14.30632258,1
917.9927379,0.156170175,12.50854599,1
867.5338842,0.152538309,13.81644165,1
841.5667796,0.150138584,14.10040936,1
856.1911307,0.141848153,16.94670724,1
735.5337974,0.143246409,15.13907263,1
838.2181537,0.192670353,2.824117194,9
700.9645798,0.138554372,13.52783997,1
773.8172917,0.145736676,15.54613189,1
809.1998934,0.151928407,13.68662099,1
793.9655456,0.148573036,12.99990321,1
814.8591959,0.148720095,14.9957412,1
911.3218302,0.151264915,16.09697573,1
839.2540925,0.150074615,15.76432309,1
951.8281768,0.161029007,13.89781433,1
836.9007816,0.150971502,13.46827631,1
761.0751334,0.141167553,18.06201211,1
881.3904473,0.150586523,16.44427664,1
863.1325999,0.1532816,13.99438825,1
748.4715875,0.137907492,20.73799278,1
898.2418005,0.148762555,17.09562131,1
901.7715857,0.155784728,13.0627259,1
896.2537687,0.140859457,11.85884788,9
884.3104751,0.147871482,18.39517415,1
855.0746558,0.147059902,18.57687426,1
1322.217128,0.181761133,1.308645166,9
900.1041434,0.151220878,18.00079049,1
787.8849877,0.142463604,16.85731694,1
799.0874787,0.142499629,18.68895323,1
767.1261712,0.137320352,22.11339459,1
741.2289439,0.138074956,18.21871771,1
989.7158051,0.136495608,7.799123817,9
824.6083734,0.144247813,18.72640768,1
818.3602918,0.148913775,16.11687922,1
845.6712487,0.147211387,18.381763,1
851.0188958,0.145191312,16.86674208,1
803.5469613,0.142754374,19.83141317,1
987.6947017,0.144721214,6.289805798,9
881.9339002,0.149994578,17.80766817,1
876.0137936,0.151125078,15.72825388,1
876.0425455,0.151711225,16.10928726,1
837.9942108,0.14723077,16.14486406,1
783.9564008,0.142575352,17.9779575,1
751.3998369,0.143770109,15.65091907,1
877.5084514,0.158926535,13.07169352,1
865.597869,0.15698063,13.85577575,1
920.1892337,0.16274581,10.39448824,1
902.6570169,0.139309507,4.765370198,9
804.422107,0.144490444,16.65867459,1
860.6995302,0.148311702,16.83601537,1
840.4032902,0.14944768,15.96134933,1
768.777748,0.1477562,14.80286776,1
850.6659104,0.156539674,13.1824336,1
768.7959814,0.143979455,4.524260601,9
832.7071446,0.14573422,15.84327698,1
810.5024481,0.14409367,17.13451601,1
763.0029137,0.145227993,14.89938678,1
878.8376994,0.152907629,14.85824454,1
920.5045562,0.155130339,16.29742411,1
966.2284514,0.163772268,12.26717828,1
873.807831,0.149368473,17.63435058,1
809.0225793,0.144390705,16.43471717,1
798.5057057,0.144705982,15.22803047,1
887.4784308,0.151882385,17.18006046,1
783.5611733,0.150704692,13.77124452,1
1322.450411,0.177677115,1.204870299,9
805.5445869,0.148135162,16.3576458,1
994.9688543,0.193282664,1.583598773,9
820.261409,0.143424696,18.01240797,1
720.0253253,0.139214821,16.19434684,1
849.0686295,0.14915347,16.18086103,1
769.3216369,0.143478102,17.1479421,1
1423.551329,0.188595675,1.255519645,9
910.889059,0.148998384,18.29676582,1
779.2738467,0.141167244,16.98189711,1
802.8746881,0.143603298,17.74185236,1
908.240941,0.154422395,15.04264925,1
889.1407853,0.152136429,15.71835881,1
787.8451621,0.147464156,16.12169592,1
859.0006599,0.155605852,13.01050535,1
930.6645599,0.159611969,13.92941766,1
851.1441461,0.146057707,17.38018599,1
772.486009,0.14609221,15.23724126,1
853.4615298,0.14951609,15.82393096,1
747.8635109,0.145144604,14.45751981,1
823.8338329,0.148267268,15.70128458,1
772.089622,0.14389217,15.58781575,1
832.3613791,0.147716603,15.29213964,1
824.6846155,0.148864592,16.17969836,1
861.5790528,0.148527359,16.06584556,1
784.6700863,0.150884553,13.38764245,1
1226.449774,0.159992597,12.28639645,9
752.019224,0.145927808,13.94826382,1
695.5897348,0.139461802,15.33661863,1
773.2028763,0.147555743,15.25502763,1
1205.315316,0.197411914,2.628461576,9
871.0302324,0.152446594,13.74555639,1
815.2050976,0.146190127,16.72118899,1
821.7376219,0.150709062,14.43473786,1
726.7323165,0.138629779,19.83674465,1
870.3329964,0.150673024,15.15177405,1
697.2807681,0.133928727,19.11147361,1
858.1791292,0.147942523,17.33957432,1
884.663471,0.155985515,12.77321616,1
897.6748928,0.153434763,14.99977589,1
887.0064781,0.150433043,16.94787051,1
900.307773,0.15284878,14.60068624,1
687.6508195,0.134472314,21.00834448,1
863.2550806,0.148115413,16.53570743,1
831.881731,0.14982579,14.11357438,1
723.4818216,0.142716067,16.31440962,1
790.2259183,0.154373801,12.031529,1
746.5707451,0.146127042,14.20256109,1
784.3695708,0.143937036,15.80542599,1
712.9216285,0.14060076,14.50390054,1
735.1943568,0.141709148,14.61305598,1
812.1614924,0.148032328,14.73595201,1
830.6995493,0.152872235,13.27103254,1
833.8040899,0.153167995,13.76184663,1
830.0119925,0.157850756,11.7769379,1
719.717421,0.139561302,15.18159431,1
787.5784643,0.144349297,14.47465904,1
776.300897,0.148800316,13.77050324,1
929.8372652,0.146674139,4.04827568,1
1378.278016,0.204483851,0.791893363,9
796.4317538,0.146756294,13.73625129,1
794.2748752,0.147204452,13.07755878,1
855.6314553,0.151305858,12.6433463,1
807.1919316,0.149433915,12.61280149,1
895.2203434,0.153006563,3.734979988,1
1610.800029,0.186157585,1.707310415,9
932.2533076,0.15769232,13.21722331,1
824.6294829,0.150938846,13.15789619,1
873.3105675,0.15266325,13.21922056,1
857.0609177,0.151506688,14.11958188,1
810.689198,0.146184657,13.93041448,1
830.2401983,0.148268291,14.55689451,1
886.6364449,0.151886228,14.99429736,1
845.3044081,0.154657053,12.35555808,1
797.8586636,0.146655251,15.83127128,1
1068.757984,0.191283613,5.097933328,9
818.2445447,0.144311826,17.29757559,1
1002.907747,0.154460446,4.137770909,1
894.6544604,0.148699372,16.14843329,1
746.353921,0.141229136,17.53120244,1
834.0555297,0.149970574,14.72293213,1
853.3026827,0.147423025,16.42396747,1
912.2281001,0.157117918,14.29738264,1
878.5531361,0.156813893,12.4642995,1
813.9489661,0.145180926,16.1925878,1
776.6475816,0.145429262,14.45989772,1
786.5126964,0.143333244,17.80176698,1
882.3218456,0.154400911,13.62426879,1
825.5345764,0.150318774,13.20206243,1
764.7031898,0.143197708,17.08221272,1
860.4353527,0.150455187,14.78258025,1
810.9628504,0.142705517,17.58101113,1
800.0420061,0.144027734,16.42120486,1
834.8208733,0.149499342,14.78874226,1
866.7339503,0.153467357,15.10790267,1
1064.517259,0.214325342,1.018303068,9
874.3563231,0.154673954,13.83855297,1
720.9002541,0.140000202,16.08265614,1
768.4866941,0.145118047,14.54176036,1
807.0459204,0.147970191,14.21623882,1
825.965132,0.15111744,13.14084119,1
855.7317122,0.155239043,13.54172441,1
786.9441312,0.15444365,12.42734678,1
826.08915,0.157381928,11.61595781,1
801.9582263,0.147127533,15.13362325,1
823.54899,0.147960823,14.09324423,1
757.981203,0.152664386,11.07422247,1
871.8718394,0.160719729,10.76562813,1
768.1246436,0.152651366,11.55943839,1
724.4701264,0.147581046,11.669546,1
752.770868,0.143240959,15.33163799,1
723.6786986,0.138763527,15.34304185,1
837.4741191,0.147536351,14.68514426,1
867.0272803,0.154037392,14.71487618,1
890.2028756,0.16135101,11.97176788,1
807.7594723,0.152342462,13.09562263,1
861.0470574,0.149839668,16.05793886,1
705.7702388,0.140829399,14.59762191,1
757.1185174,0.14160153,17.4658338,1
750.8006575,0.141814029,16.58089361,1
732.8681876,0.145752995,13.19020386,1
932.0425411,0.161501022,12.8069322,1
775.9461574,0.147252763,15.48041764,1
827.1828241,0.148569178,14.00861946,1
873.5574892,0.150043924,15.63393403,1
706.8588914,0.140282937,16.34693852,1
842.5560973,0.153412967,12.57406658,1
916.9978123,0.138934315,5.23785311,1
1453.551209,0.205732587,1.032913646,9
871.6959173,0.15675183,12.39754035,1
980.5154814,0.159648499,13.46174225,1
881.6822901,0.151678734,14.65250067,1
848.3116792,0.15139303,13.79269074,1
786.3550869,0.148520186,13.18061869,1
871.1561754,0.155421857,13.64357664,1
957.7104345,0.166100987,11.2080682,1
764.1920478,0.147870396,13.21846731,1
893.6198213,0.15492727,14.34189219,1
815.8936493,0.151432786,12.21790686,1
757.1698893,0.141696642,14.71276779,1
741.9140556,0.14419947,14.73838773,1
852.8084387,0.155279872,12.46742778,1
878.5209129,0.160041113,11.48575867,1
778.9988751,0.152475359,11.79283392,1
834.0573398,0.152878461,12.72963226,1
780.6946485,0.148542371,12.68957499,1
844.4697607,0.148579315,14.29203072,1
739.637304,0.144070699,14.30470938,1
782.619153,0.150980164,11.86561528,1
731.2442197,0.145624121,12.8790474,1
794.1788368,0.155258966,11.70414303,1
785.7225719,0.147136443,13.62757023,1
854.8553713,0.149304941,13.27573124,1
967.9696438,0.153442714,3.891078077,1
1467.430303,0.219916041,0.612188163,9
832.8332585,0.150251396,12.53287291,1
849.9094118,0.148597597,13.89206568,1
835.8254567,0.148112921,14.81055196,1
896.5444977,0.158626369,11.2836886,1
861.0037658,0.152048595,13.59726224,1
819.3485893,0.150608715,13.42909438,1
804.2192775,0.153553915,12.11342134,1
875.8329462,0.152415731,14.62999019,1
897.1126849,0.154041165,15.25198108,1
825.3084666,0.148175045,13.76424266,1
804.2687081,0.142671934,18.59251621,1
940.7782073,0.143863192,7.567638285,9
831.663096,0.143058965,19.13140024,1
901.6112292,0.151602306,4.124841352,1
820.7817261,0.144276844,18.06234767,1
909.6224085,0.150586791,16.31088575,1
847.0359888,0.147629021,15.31035899,1
853.8848776,0.147900464,15.92396835,1
873.7399629,0.150586715,16.14205549,1
848.1838826,0.150196406,16.20052859,1
774.1545119,0.144373083,14.08847018,1
872.8188262,0.154206938,13.3405391,1
854.8580365,0.152514263,13.59755184,1
838.1359464,0.152593606,13.58902859,1
1279.559979,0.230718641,-0.014219019,9
1230.430543,0.17803201,3.82576489,9
781.7327263,0.142686779,18.17011373,1
731.3238276,0.140993466,15.06973788,1
834.9855316,0.148242263,16.8819349,1
751.6220977,0.142885827,14.7884875,1
795.0897484,0.145385574,15.57256769,1
755.3084345,0.144328946,14.64142473,1
810.5139736,0.148005613,13.31505852,1
797.3896015,0.142789528,18.64014388,1
860.0658596,0.149722559,16.3415161,1
741.0751096,0.147726375,13.76652187,1
745.288486,0.148782604,12.98029926,1
868.2333653,0.155464542,14.85184074,1
837.273735,0.154495653,13.5603748,1
703.1595131,0.13809721,14.74652635,1
813.3978069,0.148744574,13.07679514,1
841.7678505,0.152408097,12.85249983,1
674.0141955,0.132398085,21.03236218,1
868.1910245,0.15201141,15.0515496,1
750.1701089,0.146755524,12.50196795,1
878.2468174,0.157635804,12.04787507,1
707.0524623,0.141754085,12.56153354,1
717.8406198,0.136831873,15.29152449,1
848.2226386,0.149159309,13.6310196,1
861.7628647,0.154059606,3.70481826,1
1486.42355,0.211958388,1.291118131,9
819.032567,0.147844943,16.70667092,1
1029.050601,0.157161232,11.90844388,9
767.6385407,0.142297167,16.85699316,1
680.2096291,0.134362885,15.94023462,1
841.6248803,0.148037982,15.65991043,1
751.7649986,0.14607804,14.92014252,1
903.691968,0.158192105,12.97642315,1
790.2418684,0.145429335,14.82677812,1
775.7040838,0.144887041,15.10875502,1
802.0650214,0.145267065,15.98210153,1
768.2480669,0.140881532,16.64259768,1
1144.078311,0.158395663,8.190525414,9
852.8291801,0.149381214,14.71089428,1
778.6540227,0.148528921,15.08903689,1
922.8695598,0.156527223,14.59548504,1
896.4988734,0.151657718,15.50607518,1
1347.817171,0.177224345,6.93842533,1
1129.537723,0.157394392,10.25055222,9
827.1057455,0.145375047,15.97909166,1
840.14614,0.152329652,12.26886164,1
896.0016793,0.155106715,14.09048678,1
874.8460905,0.151854883,16.47002836,1
884.7396913,0.155355376,14.43668724,1
1061.000658,0.145226777,10.37422296,9
840.6964143,0.142730185,19.29842726,1
871.205003,0.151122575,14.02340501,1
1203.819416,0.151421868,15.10338377,9
937.4185742,0.156165807,15.36525003,1
889.1907274,0.156305663,12.88859272,1
906.751676,0.15203845,17.59633018,1
922.4561248,0.156699866,14.65200036,1
799.2861315,0.142954307,16.67915704,1
1068.818084,0.142990173,13.63159287,9
860.7770746,0.152231579,15.30499188,1
851.0758208,0.147982897,16.28971293,1
936.1485176,0.158396053,13.28594399,1
1343.211395,0.186024871,1.229375122,9
870.705224,0.149154202,14.24985801,1
658.2906279,0.132082369,18.33810086,1
831.2966019,0.144635608,16.41196567,1
876.4318636,0.152471108,13.5336867,1
860.6874038,0.151981203,13.47201138,1
799.2300264,0.152377689,12.08637944,1
965.2117076,0.15940313,13.75257575,1
796.5959564,0.143441461,17.79378563,1
767.8716133,0.13986349,17.28123072,1
795.3907848,0.144421809,15.29177959,1
811.9762937,0.144573542,14.95280184,1
904.0647796,0.149569049,17.69484445,1
779.8148983,0.146175143,14.72663905,1
949.0243696,0.1574531,11.20520753,1
819.3299592,0.148199013,15.59594627,1
755.3787714,0.139022255,15.46831649,1
760.6977288,0.1371586,21.08078648,1
860.7866693,0.148277718,16.23658332,1
756.4815105,0.145253883,14.88739648,1
913.2780732,0.151810174,16.98704695,1
986.000034,0.140440601,5.360097146,1
1463.608165,0.196527531,1.058097621,9
815.7405774,0.143296959,18.16300571,1
760.5847655,0.136473552,20.16589415,1
742.1385121,0.138575749,16.42867125,1
871.1408664,0.150120628,15.86550639,1
949.8104354,0.138929408,5.514462905,1
1419.183459,0.207106972,0.886879927,9
913.3597314,0.154245784,14.49448335,1
870.349916,0.149030317,16.02437644,1
819.1020376,0.146789339,13.83266245,1
852.2241581,0.149362233,14.60558879,1
953.3583071,0.149684753,4.367724234,1
1394.75884,0.188858594,1.462768965,9
868.5839226,0.152029184,14.12210109,1
946.7891238,0.15884238,12.93173981,1
836.7391898,0.151747388,12.93213517,1
811.8651501,0.147563696,13.54155188,1
832.7215476,0.147387363,14.64252788,1
818.1932599,0.149551308,13.97142754,1
804.9497154,0.148173864,13.10132738,1
790.8559783,0.149280888,11.84585983,1
797.5458042,0.144715073,14.56556515,1
846.9676348,0.154239125,11.40488227,1
792.2582879,0.142643895,14.69357998,1
719.6785752,0.139542935,13.01528034,1
663.7640312,0.134939735,15.30876995,1
868.5196838,0.148369079,16.15429254,1
874.1191241,0.152945728,14.01622947,1
898.2684911,0.156951207,13.04823419,1
923.3935096,0.156109058,13.52451957,1
781.5074006,0.141830857,18.32302803,1
814.0794318,0.145891449,16.00879859,1
962.4877101,0.150319584,3.983739779,1
1503.610265,0.181796317,1.697194109,9
760.5457912,0.141223372,17.45168511,1
750.6605326,0.14387927,13.96993247,1
786.9596816,0.146915932,16.21689684,1
902.5681503,0.153414352,15.03990906,1
1044.1038,0.153993394,3.731116834,1
1592.235459,0.198561228,1.463015888,9
903.2734866,0.152856736,13.85612424,1
744.0959725,0.143356599,15.16587324,1
822.6770303,0.149298513,16.39143434,1
901.0040448,0.158190835,13.02149181,1
869.5352498,0.152724579,15.15906534,1
767.8556295,0.144250645,16.53077075,1
911.7801821,0.152797816,14.52852448,1
824.2014327,0.14873232,14.80157894,1
887.8233863,0.153358586,14.90526828,1
774.5610236,0.142994339,17.18018975,1
798.9710413,0.144592576,16.12599498,1
728.3261422,0.140467953,16.2887171,1
956.2013949,0.157902244,14.29277238,1
797.846686,0.146806159,14.14394239,1
984.6873578,0.153199236,4.025776401,1
1586.199355,0.182098971,1.71745304,9
910.9435944,0.153913095,14.56896964,1
968.1470368,0.161194093,13.87723555,1
872.9461874,0.134765639,5.453015298,1
1525.373984,0.211547639,0.945589513,9
916.76007,0.15529317,14.13321523,1
750.7417685,0.142693773,15.91168791,1
960.9195981,0.146739209,4.664291483,1
1529.404089,0.206899794,0.973236587,9
798.4062672,0.147114823,14.09010309,1
857.9282924,0.155224628,12.00979024,1
1007.143275,0.141943834,4.161178852,9
765.4468402,0.141523364,15.55706506,1
811.6644218,0.146710549,14.35838709,1
844.6316634,0.146759922,15.67628078,1
842.7238723,0.152121204,12.74027865,1
808.0556637,0.149341758,12.85378535,1
949.0805582,0.148659929,4.230068935,1
1427.977736,0.203532864,0.949962239,9
899.3315025,0.15702209,11.7834881,1
900.2063107,0.15225026,14.03271809,1
732.6568011,0.141249801,14.92124888,1
792.4312354,0.145474873,13.93243204,1
948.9884179,0.160159489,13.12567667,1
755.078128,0.150721046,12.03054971,1
807.0909131,0.153459648,11.58078676,1
771.9398545,0.146859025,14.11811876,1
742.4275032,0.145091873,13.74668619,1
730.6827535,0.143753441,12.68672044,1
847.0996379,0.15004003,13.7822627,1
738.994025,0.145720218,12.11593154,1
727.9329442,0.146623317,12.23926849,1
756.8644052,0.148773681,11.56838895,1
894.8546393,0.150198424,15.99850152,1
755.7048548,0.144526097,14.25705273,1
759.8321257,0.143582345,14.84725785,1
742.8271481,0.143368635,15.61624365,1
799.5124552,0.152049356,12.36717332,1
913.6062955,0.146096647,4.10400641,1
1434.533222,0.20611991,0.923183344,9
733.6407997,0.14521551,14.35848038,1
694.8037564,0.13835991,16.18919604,1
683.5939249,0.138104738,15.44386086,1
729.1334988,0.14660444,13.17003947,1
864.4883046,0.14762175,15.32291582,1
781.1650019,0.147088226,12.94054541,1
812.825692,0.153593856,12.32641278,1
750.8337254,0.150698926,11.9163593,1
893.9371448,0.153716978,14.76624279,1
708.6843886,0.14140756,14.21362467,1
840.3662382,0.15167349,13.57796558,1
719.3542878,0.142736277,13.63918869,1
771.9658574,0.149120342,12.78475489,1
998.3669405,0.14309582,14.72139489,9
776.9614928,0.143796995,16.09456904,1
902.1767081,0.157651076,13.28970994,1
715.1105568,0.144096731,13.89855027,1
832.2109455,0.145470424,15.34251077,1
764.9029226,0.151418067,11.87613167,1
743.6099347,0.145767855,13.72052026,1
932.8962246,0.154214507,8.495167865,1
816.3170721,0.140150362,17.61614174,1
719.9739598,0.14681735,12.72050331,1
758.5266693,0.14460876,14.89374259,1
792.4028396,0.149868505,13.66723153,1
815.5390745,0.148443091,14.10716143,1
824.4929155,0.152719255,13.37358884,1
749.3341162,0.147349389,11.93283287,1
828.8308641,0.15258061,10.88919581,1
774.2696528,0.153114325,11.40472281,1
795.7055883,0.147990148,14.14282185,1
838.4216519,0.152225179,14.23759842,1
962.8885873,0.133399631,9.26063446,9
880.5235842,0.151909019,14.72612224,1
975.6870523,0.155659329,3.478220073,1
798.7058022,0.140849665,18.54660263,1
779.8767964,0.143448065,15.2445262,1
778.6221595,0.146493949,13.51353558,1
871.4557665,0.150232012,15.53057376,1
886.7941994,0.152116103,15.31125081,1
1019.073076,0.140022945,10.59300974,9
790.161432,0.143931668,14.84879983,1
769.7620398,0.141505344,16.91019282,1
798.2377204,0.143357172,16.31418327,1
792.0554011,0.142982903,16.67290621,1
849.6527316,0.146903469,15.52175168,1
771.8696692,0.144637217,16.34925179,1
848.5555028,0.15056298,14.4855765,1
801.8120006,0.149869553,13.6580496,1
833.7508323,0.149321593,13.95658909,1
825.1527416,0.144197618,17.16521393,1
844.6102791,0.150052052,14.19464522,1
744.9012357,0.1453208,14.24218435,1
735.138768,0.143887059,14.36713609,1
871.8402475,0.156323931,13.04327397,1
1342.066777,0.172531719,1.629301408,9
840.4286573,0.147891399,15.25038777,1
884.3736094,0.153935304,14.22445873,1
1113.187643,0.196094723,1.472475582,9
927.3354502,0.161604968,12.27915807,1
894.8868165,0.15801998,13.61411565,1
796.961035,0.150072975,12.56370597,1
826.9907838,0.147264072,15.35455646,1
751.7826372,0.141399894,16.45104831,1
872.058811,0.153610848,13.42522653,1
659.487242,0.135283961,9.784124904,1
926.7278693,0.2264952,0.541999514,9
784.2503285,0.14732424,14.5334845,1
786.0958523,0.145618668,13.67906617,1
1006.628746,0.150755607,3.545951191,1
1789.730693,0.199639285,1.451812488,9
743.6571194,0.137846917,16.71235323,1
726.3420461,0.139499195,14.86524187,1
788.4063973,0.147323601,13.37788279,1
878.3375525,0.152087048,14.63484127,1
928.8200586,0.156622648,13.53686744,1
789.7743661,0.148509097,13.3346248,1
830.8882599,0.148398806,13.91365917,1
820.7699124,0.145966003,14.34586739,1
773.714301,0.188502365,3.663011842,9
790.1301054,0.151681678,12.28758668,1
858.474893,0.157832613,11.8101811,1
772.6957939,0.149047481,13.62308556,1
852.1852514,0.152384707,12.63382052,1
896.3607966,0.151698635,15.27740023,1
782.7524188,0.144519367,15.06395416,1
904.4893201,0.146508093,4.518315034,1
1331.990714,0.194683212,1.004195653,9
1013.972316,0.164423495,12.80893117,1
845.3985311,0.152650312,13.01294437,1
778.1699886,0.147608706,13.23027537,1
720.813507,0.140464267,15.15250946,1
879.8308322,0.150345914,15.77732093,1
775.2193994,0.145990181,13.83543669,1
796.7946174,0.150300997,12.47052416,1
874.3856335,0.154383626,12.9090459,1
1380.145888,0.195679338,1.045900212,9
756.4053296,0.139864768,16.83943759,1
706.3585798,0.137823801,16.42011992,1
883.1206112,0.154649083,13.52873245,1
893.4492415,0.156016905,12.95390494,1
792.6510633,0.14455019,15.85832984,1
761.3740134,0.143415156,14.78108956,1
773.625628,0.144117337,14.41615976,1
840.5821749,0.146263133,16.83174735,1
793.6165661,0.141900412,16.79449997,1
763.354012,0.140371998,16.22271596,1
822.6730671,0.150128172,13.61962484,1
850.3375713,0.15274992,13.77031881,1
790.371594,0.152386739,11.87871698,1
954.6799274,0.157227197,13.57707757,1
870.9167352,0.147986267,16.14314331,1
802.0878534,0.145442663,13.02472712,1
941.0034129,0.156166924,14.19003277,1
859.7927938,0.149109425,14.46946677,1
898.9962246,0.157708,11.64664975,1
811.1417895,0.153193025,12.19223824,1
936.5669612,0.162321015,12.24480116,1
759.9625536,0.146172677,12.89634551,1
788.9877304,0.145419967,14.95712532,1
727.1755606,0.141936048,15.02306996,1
738.4385439,0.145577682,12.56085309,1
906.1429369,0.157701094,12.98468624,1
851.0393725,0.150471431,14.58476242,1
914.923682,0.16193363,11.87755655,1
761.9511056,0.145244037,13.56399117,1
775.2627541,0.140335573,16.32062839,1
749.7215009,0.142525694,15.18489147,1
807.2910007,0.149000227,13.38343975,1
808.9233083,0.149826846,13.21777644,1
816.5467194,0.146967472,15.24014338,1
762.9646728,0.142954629,15.4034083,1
818.217223,0.151607726,11.70169027,1
765.6514275,0.143793284,14.01527269,1
730.9442468,0.14259643,14.66838089,1
757.2617227,0.148197355,12.92872467,1
865.7695859,0.141197547,19.91532613,11
885.2189544,0.156804458,11.7604087,1
864.916109,0.147170112,16.33742004,1
780.9991639,0.144837902,16.35042011,1
806.3097168,0.149173927,13.01210134,1
885.2362368,0.154943624,14.59549598,1
730.0341735,0.148639694,11.61233634,1
820.6071478,0.143686316,17.11473166,1
797.1320119,0.147378884,14.77108063,1
938.7676267,0.159073827,13.51501846,1
746.0473688,0.140805878,15.81947455,1
758.5901558,0.143150568,14.60741031,1
759.4793027,0.153399819,10.62687745,1
840.8284633,0.155784114,12.80641662,1
804.6360459,0.148258883,14.31538864,1
741.0249826,0.143924291,14.13734866,1
698.4230478,0.141286571,14.69270309,1
809.1763314,0.152908715,12.90370776,1
810.8117877,0.153538482,12.80976651,1
829.5079086,0.146295603,17.15736784,1
771.5635494,0.14718249,14.09146291,1
1005.795639,0.157679722,14.16915979,1
698.6790212,0.137402396,16.87489813,1
844.9750354,0.151037163,14.02159774,1
792.6817287,0.142074682,15.81254789,1
661.1467452,0.131029137,17.8778123,1
786.1677238,0.146064851,16.24155271,1
843.3767698,0.150629294,14.9794632,1
816.5834762,0.146224617,15.09101131,1
867.1680946,0.153801828,13.63871449,1
824.4317345,0.14746165,14.30573865,1
849.1536171,0.149683316,13.99245259,1
856.5276187,0.153627155,12.5087933,1
813.2217269,0.146541309,13.26231106,1
782.6153991,0.153936281,10.25070972,1
852.7009144,0.147432625,17.59765343,1
753.8655056,0.14489488,14.43157948,1
879.0032605,0.153533627,13.96251489,1
790.8106219,0.143465469,14.50900063,1
1606.440791,0.200490826,5.006512108,9
816.7198528,0.150240413,13.32031745,1
725.9136284,0.139035865,14.44701291,1
765.3778066,0.142284456,14.48155337,1
972.2461564,0.153126963,4.157484415,1
1482.580989,0.200074788,1.329225894,9
811.4924237,0.146495982,13.45295279,1
769.6915892,0.142552598,18.00908678,1
841.4408037,0.148935769,15.35179728,1
929.5375633,0.158100805,10.16237435,1
1193.326796,0.157080468,8.123041833,9
846.8477012,0.147775169,17.4034685,1
797.4277195,0.144755173,15.49489349,1
791.9067126,0.143524375,15.90569435,1
763.2750302,0.143971658,14.41158896,1
973.4773333,0.147848777,7.760970886,9
863.5850751,0.154224233,14.70762869,1
908.2460714,0.154584217,14.97761777,1
814.4275073,0.143744173,16.03921189,1
778.4174814,0.142202468,15.77794386,1
1061.75686,0.143560812,13.6091444,9
749.9539771,0.141171654,17.31744574,1
861.3362995,0.150065377,15.94974673,1
869.611089,0.152899989,13.44188835,1
770.7277526,0.147441016,14.43868931,1
826.4568207,0.146593644,17.87164249,1
1305.110598,0.175172065,7.265780608,1
1077.754101,0.158976142,11.03403896,9
923.4802756,0.156050446,14.98184807,1
924.0858748,0.154567461,15.3908561,1
843.2480812,0.149267398,14.3849488,1
933.9151494,0.152654103,16.82669817,1
1456.305129,0.173537434,13.33963422,9
881.7559976,0.146298754,18.83175872,1
780.2764369,0.138293661,17.70904806,1
1110.876999,0.156370706,3.825849738,1
1633.32226,0.191782181,1.29967735,9
984.5230119,0.169881396,10.93168154,1
893.8675826,0.147607377,16.96170014,1
859.2226051,0.147695265,15.60604483,1
786.8131722,0.144790673,15.45507098,1
877.6116271,0.150131422,15.60555986,1
871.7906234,0.151965643,15.14231964,1
835.2814109,0.149410932,13.91145577,1
897.7203391,0.148238254,19.04320298,1
925.8048817,0.156307232,14.20782011,1
800.7406926,0.152551442,13.38738074,1
821.0023289,0.148675287,14.5533705,1
741.0795896,0.144449105,14.87568117,1
759.3892865,0.143462889,15.04542606,1
843.451495,0.153073372,14.04432583,1
883.5861355,0.147672464,17.53170984,1
748.8191768,0.141204561,15.55763929,1
760.7399629,0.142899418,15.89924419,1
919.7132573,0.161346026,11.99265055,1
798.2384965,0.148292787,13.63548485,1
705.2105994,0.132820789,22.17107601,1
781.7071562,0.139010806,18.39209288,1
764.7844632,0.139532339,17.25213469,1
866.1310529,0.152022381,14.22663895,1
838.5189217,0.156632369,11.52741589,1
840.6067264,0.147057283,18.18210914,1
775.3321103,0.142243205,17.03689628,1
851.4898558,0.147028532,17.1177173,1
849.3576764,0.146430357,16.988238,1
830.6828529,0.14365435,17.30974029,1
863.9667277,0.145986822,17.58532373,1
778.1488981,0.141115283,15.97197539,1
843.9476153,0.148117452,14.96314907,1
873.6544536,0.152894178,14.1444095,1
758.1430095,0.143642968,14.67554266,1
809.4084096,0.148392844,14.10882422,1
725.4058217,0.138184412,16.6890073,1
720.7343648,0.143337352,14.96022507,1
766.9394312,0.143087812,14.39188905,1
846.2223747,0.155878432,12.07985394,1
845.3202705,0.152691982,11.74628011,1
1218.634766,0.171149155,7.927328297,1
1013.187876,0.147105334,14.81383198,9
713.3642057,0.137536035,16.96338189,1
1005.020547,0.156495565,16.34323151,1
896.1820814,0.150701358,16.27201668,1
874.3540631,0.151370073,15.32325272,1
866.0180135,0.151968216,14.47635045,1
986.753309,0.149001152,4.41786151,1
776.6069787,0.141105663,17.66439822,1
701.6557547,0.139158752,15.96863642,1
821.0962106,0.147955387,14.0924687,1
827.6313075,0.15034217,13.20583784,1
1300.151193,0.161037958,8.31093723,9
904.8031134,0.152701687,15.95422685,1
804.4075439,0.14138645,18.7920178,1
857.5945902,0.146153875,16.79011971,1
789.9714631,0.146591269,15.14988972,1
773.4258691,0.15246469,11.9455587,1
1025.655263,0.16209605,12.85476532,1
1174.541094,0.148129819,11.83690523,9
777.9301787,0.138413389,20.52145729,1
758.1542282,0.136304885,19.4035559,1
826.6723119,0.14422911,17.8909234,1
836.8237359,0.14586768,17.1091576,1
980.5973538,0.163676351,12.02685197,1
854.7122201,0.153450471,14.4750093,1
811.2750701,0.148957785,13.73390576,1
778.6883249,0.14809935,11.42050868,1
818.0307439,0.169028609,10.43198142,1
1746.099625,0.184497452,4.028623098,9
2210.635984,0.225491902,2.630162094,9
1255.253504,0.158490911,10.54539499,9
1149.406356,0.143188477,8.25263318,9
1323.499365,0.165443403,2.138471127,9
1257.800671,0.161830964,9.186247508,9
2078.834644,0.209579535,2.786662274,9
1207.513616,0.153708881,9.114783357,9
1172.782982,0.150877789,10.77808215,9
1232.377065,0.157380267,8.436150871,9
1280.316169,0.160060768,8.132055623,9
1307.046835,0.17707552,5.622823763,9
1079.401473,0.154000025,6.078473106,9
1208.229078,0.143506274,6.000280358,9
1200.055865,0.156302324,8.457925079,9
1328.70424,0.179304775,4.579511848,9
1791.588924,0.187664168,3.556050298,9
975.8734729,0.142218408,11.57579469,9
1686.001959,0.176141771,3.386089687,9
1049.533841,0.149486856,9.94680477,9
1350.2552,0.187675322,3.955990175,9
2059.632844,0.212049872,4.586004943,9
1191.125903,0.161346245,5.44977292,9
1235.897151,0.1547914,8.693942448,9
1215.300498,0.1560477,9.041114083,9
1302.055059,0.158948348,8.398634786,9
1194.169116,0.151631483,8.76302922,9
1686.492497,0.185837949,3.677373546,9
1196.768405,0.155477295,9.131267852,9
1265.787189,0.1633669,8.43061386,9
1299.66029,0.162671668,8.915096126,9
1952.053046,0.187823766,3.352218526,9
1166.567296,0.163237147,5.830206883,9
1205.190327,0.1521612,7.412805148,9
2008.104127,0.209191821,4.587601979,9
1342.412892,0.189773397,4.402537021,9
1152.676491,0.149205303,9.568884432,9
1310.895959,0.16023462,7.90198017,9
1368.350947,0.191341025,4.442156938,9
1190.251467,0.155201246,9.654962426,9
1215.831607,0.15797473,8.413476777,9
1253.531732,0.161136175,9.083396257,9
1428.489814,0.165549841,5.030425219,9
1203.346885,0.155213502,8.10576573,9
1290.899233,0.15542248,6.007503822,9
1230.294975,0.176983774,5.007131851,9
1199.682721,0.153620584,9.931966009,9
1997.315601,0.223288096,2.62316261,9
1258.975036,0.158348755,8.77694673,9
1148.539156,0.150537101,10.23600513,9
1333.996577,0.163259071,8.682931203,9
1025.462175,0.162621247,5.635313835,9
1240.800735,0.157734407,9.84630228,9
1222.673736,0.15673355,8.097416963,9
1031.099791,0.13860315,9.604244968,9
1289.858605,0.163206127,7.993008464,9
1115.338628,0.156478505,6.24571913,9
1261.99456,0.157415613,8.057194976,9
2023.382362,0.22246598,1.796287901,9
1354.441133,0.15664447,5.428725757,9
1427.421414,0.177472368,5.060821066,9
1361.209384,0.168839688,6.958355933,9
1237.33839,0.159717741,7.453908708,9
1424.602356,0.192511649,4.29682636,9
1295.312785,0.155666545,5.898213741,9
1243.934704,0.158928252,8.306897591,9
1177.357734,0.155056185,9.829178774,9
1361.949,0.167082439,6.982956382,9
1190.680397,0.150280516,6.918649634,9
1175.894689,0.158817476,6.660663294,9
1253.302716,0.163243757,9.055062648,9
1342.903787,0.166404441,6.593165063,9
1320.130021,0.164039415,8.537372242,9
1296.380598,0.163031194,8.321452865,9
1503.096928,0.164231186,4.007826706,9
1211.063993,0.15559105,8.015958298,9
1198.512048,0.147523373,8.262118857,9
1125.230052,0.151140639,10.48335324,9
1269.027291,0.158377773,6.381087797,9
1214.322632,0.15695711,9.461557601,9
2040.815955,0.197693945,3.67924612,9
1268.385331,0.159792817,8.792709049,9
609.3960038,0.161424125,2.996586882,9
695.7409668,0.169475878,1.993609862,9
1091.117722,0.205276417,3.571336838,9
628.2014009,0.154733182,4.084773862,9
585.9741057,0.11156392,16.50905649,9
997.8474428,0.179756723,5.126461472,9
1218.991237,0.214910659,2.068979243,9
995.6683411,0.27505096,-0.865287324,9
876.8857341,0.199829142,2.831934937,9
840.8379007,0.198463868,2.712111709,9
1140.981821,0.170115865,5.164382439,9
910.6436048,0.170976396,0.993326919,9
824.9899562,0.16446993,9.856526402,9
906.3488763,0.156038625,10.88555307,11
941.1565337,0.156604802,13.90206725,11
969.3134112,0.160276439,10.35687349,11
742.4122308,0.148091845,13.07049909,11
855.1631786,0.156855798,10.85899238,11
926.920047,0.158205862,10.75353696,11
864.2519393,0.207248571,2.599546659,9
840.1098478,0.209529602,2.39756921,9
1055.31738,0.135036236,6.792262377,9
1200.362495,0.161634041,9.96946738,5
855.4039578,0.134766129,11.88648664,5
882.9314461,0.14481689,10.20523674,5
886.4634754,0.141236071,13.09309347,5
952.7429361,0.137462286,12.97153245,5
857.6064285,0.148084172,8.833616533,5
954.1443235,0.153103441,7.852262133,5
964.7392824,0.161608967,10.55582673,5
830.8172339,0.148854384,10.9413904,11
778.8453954,0.15225592,8.479745109,9
878.3690548,0.158918607,8.166012533,9
948.6267435,0.168787316,2.76980714,9
1045.039697,0.184095751,2.342299963,9
981.8432216,0.187985523,1.673766535,9
1034.079426,0.189620018,1.785179517,9
860.1765628,0.16685354,3.55337473,9
946.7107401,0.173711794,3.115119672,9
902.2933095,0.180724472,1.75565511,9
1078.042387,0.188415373,2.142068034,9
902.4392297,0.184083665,1.751337872,9
837.0143844,0.170777696,1.624018652,9
885.0815452,0.197064857,0.888240794,9
929.7094189,0.177363569,2.328470859,9
892.5928543,0.180950746,1.985197007,9
836.7645356,0.183657031,1.683740996,9
841.8292529,0.176267983,2.567727526,9
967.8727105,0.189077954,1.782578395,9
819.2265592,0.187366636,1.189801209,9
891.9574792,0.177461492,2.876704287,9
955.5014441,0.193153322,1.547799397,9
825.350828,0.180797238,2.190013377,9
803.3816315,0.182251601,1.569801528,9
897.0025599,0.199611268,0.824348235,9
786.1619801,0.168979107,2.727647736,9
775.5709425,0.184087737,1.894410305,9
838.4262623,0.178401381,2.413619792,9
786.2531924,0.180570093,1.565357536,9
950.6477016,0.190628074,1.492006015,9
746.4582442,0.164801022,3.473495591,9
771.0779874,0.198532708,0.532890126,9
899.8716645,0.173866106,2.747451991,9
916.8773783,0.175298968,3.089917278,9
665.0060789,0.184040694,1.019722469,9
981.1598702,0.185383383,1.165718055,9
919.7442858,0.178028494,2.422453661,9
958.6452466,0.18925089,1.889010245,9
924.7964659,0.179799396,2.224577036,9
817.1632103,0.185183791,1.140399629,9
913.9485497,0.176756718,2.481048384,9
799.9655359,0.202084051,0.414628051,9
841.5209596,0.173483275,1.914162538,9
811.7119049,0.183374804,1.539016029,9
975.9815768,0.191929892,1.38639028,9
915.3539934,0.172074863,3.423638278,9
767.3482967,0.195196808,0.626136698,9
1102.110042,0.192347564,1.389584235,9
892.6805876,0.186461597,0.881050042,9
783.5242468,0.177655602,0.932216184,9
776.2678373,0.140142347,3.984844042,5
721.0557309,0.237423432,-0.39221791,5
838.4666215,0.144089198,18.56783907,5
925.1106196,0.14586832,17.51969644,5
1153.559371,0.172653137,4.286054516,9
827.3620816,0.138256743,19.19718017,5
874.7775433,0.146234121,18.28028903,5
808.1258169,0.140802789,19.99124487,5
1230.362051,0.158329981,6.404670683,9
1261.640658,0.158147542,7.229336868,9
1443.244665,0.168090808,4.685725794,9
1102.557806,0.147443859,7.353214458,9
796.6870453,0.14373621,18.64754513,5
929.79293,0.148865058,18.76793372,5
816.0263448,0.139592779,20.62995402,5
1000.442815,0.159629983,5.702824095,9
948.758201,0.168127219,6.426101959,9
874.5532204,0.168351439,7.664029396,9
921.7276076,0.168197659,8.688889433,9
886.7521437,0.158039983,10.28006313,9
951.3221913,0.157354356,12.67182249,11
990.2508387,0.170600381,7.561633636,9
1177.438426,0.180672125,3.792264158,9
1061.581463,0.174749696,4.15427185,9
995.5059869,0.177844844,4.339980897,9
1076.376928,0.180400983,3.798851156,9
1060.906668,0.17430776,4.576080624,9
993.2487319,0.172926019,4.456032862,9
1126.678304,0.187230086,3.613785203,9
1072.785345,0.174686802,4.266224003,9
1095.150719,0.181741075,3.70637825,9
1069.363337,0.17642265,3.925835754,9
1096.269063,0.182585623,3.584778439,9
1011.452954,0.170307115,4.155734288,9
1053.353226,0.182154275,4.289006549,9
1079.462981,0.175610724,4.063840876,9
1049.879464,0.174240052,4.436399074,9
1073.508664,0.174588276,4.585977902,9
1142.519444,0.182530205,3.97168877,9
1122.197007,0.177434999,4.155224668,9
1143.398576,0.18166695,4.203050278,9
1106.130847,0.178905855,4.002397845,9
1000.577797,0.171964816,4.550142168,9
1161.153691,0.179602221,4.035059878,9
1107.233996,0.178866079,3.981495765,9
1112.115558,0.172930364,4.394512574,9
1177.092674,0.178979173,4.449409868,9
1212.521976,0.178155196,4.026856893,9
1006.63208,0.170525706,5.084300397,9
1124.985717,0.182177941,3.94050458,9
1077.182693,0.178808179,3.593602687,9
1172.896053,0.184297401,3.894994605,9
1173.225662,0.179411167,3.96891681,9
1054.939888,0.16686023,5.846980771,9
1127.326437,0.180156247,1.115689889,9
850.0913064,0.140019211,19.26540984,5
792.2431238,0.136943789,18.012899,5
1082.853679,0.144929219,8.148004415,9
739.9672673,0.135493276,22.50986199,5
959.9849946,0.161931301,10.08124875,9
1051.870131,0.174463639,8.810424042,11
957.0246504,0.163054274,9.71162191,9
1004.595293,0.171484265,8.666439314,9
984.5431686,0.169010065,8.96530007,9
1053.963476,0.172407073,8.675075367,9
994.2301838,0.160060688,12.2562527,9
1138.051611,0.203909277,1.334311103,9
1016.771977,0.170027416,8.746137062,9
1093.093052,0.178383194,7.737455946,9
977.6747512,0.163782647,10.62047648,9
895.3682396,0.170229703,7.377296908,9
978.0494311,0.16839915,5.201892753,9
968.3794527,0.170237456,6.326054858,9
809.0956488,0.143209671,20.121849,5
843.947441,0.185883163,3.50700657,9
880.1872517,0.147655068,16.68726897,5
975.156518,0.130419365,4.301521704,9
870.4188992,0.144468136,2.919190717,9
740.3352002,0.136506839,21.40878499,5
1368.942303,0.204267888,3.946976972,9
1263.334318,0.18076938,5.934974629,9
1277.649988,0.178882127,8.130916626,9
1490.960706,0.206083598,4.640395551,9
1287.180372,0.188416125,6.202735703,9
1227.482192,0.17609033,8.865197924,9
1357.8424,0.21744053,1.426103307,9
1235.552227,0.207626767,4.754978171,9
1439.727619,0.19500011,5.379882439,9
1288.365651,0.18781737,7.181579945,9
1409.31215,0.18788443,7.877106654,9
1327.624639,0.198122166,2.982223478,9
1235.940609,0.19940564,3.173500842,9
1337.543894,0.209761366,2.985072362,9
1349.054862,0.188943906,5.811860037,9
1618.584923,0.197793597,5.14049335,9
764.1664382,0.291571841,-1.157262743,9
1425.501882,0.193109858,5.011587925,9
1486.470602,0.181528908,8.058796602,9
1286.104477,0.18755939,5.663666481,9
1203.557366,0.18265128,5.021772216,9
1327.246881,0.183948559,6.801647876,9
1268.82345,0.184792802,5.595133383,9
1287.118737,0.183182876,6.532239489,9
1355.915759,0.186087498,7.31447336,9
1334.367852,0.179627567,7.159860459,9
1216.851129,0.173943837,7.385148218,9
1206.397297,0.177275176,4.99695234,9
1390.550803,0.183578251,7.455440749,9
1254.526148,0.173932643,8.455461826,9
1340.171298,0.178216459,7.823900417,9
1301.651496,0.18210173,6.694959101,9
1350.395896,0.189819393,5.280468251,9
1364.824981,0.178515995,7.500776981,9
1268.1652,0.190003455,5.405314491,9
1307.799375,0.180470301,6.057838905,9
1270.252827,0.179344568,7.337992816,9
1337.147373,0.183439401,7.056148148,9
1227.68929,0.185149146,5.193739815,9
1325.505085,0.188218023,6.021868253,9
1308.288501,0.184328326,6.431697463,9
1289.234935,0.177755244,7.294608908,9
1228.216645,0.182947807,6.540501522,9
1357.617287,0.193611671,5.482789968,9
1259.115007,0.177819075,6.740293181,9
776.4980716,0.149417639,2.541598844,5
1365.093303,0.198010493,4.078481116,9
613.3118234,0.264724731,-0.244835595,9
1227.352314,0.233550222,-0.01952167,9
1350.673398,0.198803496,6.112122106,9
1351.653293,0.182781281,6.112910182,9
1109.991756,0.235385827,-0.218496421,9
1079.190824,0.207333185,2.423867263,9
1352.198896,0.222189471,4.711877457,9
1270.27279,0.195757106,3.927841916,9
1328.375842,0.185120604,6.155989531,9
1302.568799,0.176410256,6.873825807,9
1289.571281,0.179393965,7.506856736,9
1308.438946,0.185194459,6.73606717,9
1132.151993,0.176000412,5.955502954,9
1192.19861,0.177047359,6.192776715,9
793.392196,0.152066893,3.557997426,5
1330.083313,0.176702752,8.311974293,9
1161.518305,0.177580027,5.536770316,9
1336.448294,0.174170347,7.543803411,9
1130.847793,0.173048925,6.643951332,9
1160.512208,0.173553361,7.08602432,9
1288.611871,0.173283345,7.828619922,9
1343.063887,0.183640818,6.66406664,9
1360.996153,0.190161469,6.13541921,9
1289.340847,0.187035977,5.323827523,9
1324.140166,0.189182692,6.014844532,9
1078.170071,0.163170616,6.992746307,9
1227.201458,0.179418155,6.067888283,9
1171.754422,0.194013396,4.445346995,9
1303.060465,0.176987142,6.873500073,9
1425.26383,0.190681301,6.345514705,9
806.1616308,0.143143223,8.919524527,5
1150.313538,0.173653085,6.690205581,9
1177.600199,0.183974611,5.122063627,9
1466.465861,0.186306338,7.396395798,9
1333.842297,0.19540521,5.255728747,9
1323.121138,0.174309063,8.281400792,9
1170.525394,0.112787191,9.501075169,9
1274.17522,0.183955017,6.259274608,9
684.1382548,0.112037368,8.384741702,2
667.1812475,0.118080043,6.261529629,2
643.0668814,0.117978858,6.338533744,2
657.1649302,0.111737468,8.961747565,2
616.7057061,0.114460097,6.552560819,2
619.8140456,0.11505369,7.603167172,2
645.7437515,0.11232734,8.81231449,2
622.0614928,0.110032283,9.495136344,2
597.1888523,0.112842823,7.903294272,2
635.6363248,0.108689246,10.37713534,2
556.59027,0.10850816,10.15217746,2
633.0506908,0.112634921,8.875513454,2
581.8961073,0.106733994,10.72919021,2
607.7060753,0.109250237,9.84215298,2
647.7465182,0.113123405,8.525270779,2
609.5518128,0.107936147,10.04305557,2
530.6954456,0.104171505,12.14333675,2
579.6338413,0.109875346,11.5005602,2
595.3723303,0.10698846,10.92328764,2
534.270307,0.106772556,12.1003834,2
557.5072866,0.104796116,13.76162454,2
567.3228179,0.104640176,13.15500725,2
496.6477994,0.103022224,13.94197547,2
534.8560289,0.104638317,13.59103233,2
545.4947382,0.105008988,13.55419287,2
480.696765,0.103456223,13.24332579,2
545.9872086,0.105158969,14.43696865,2
504.0106925,0.102089546,13.44249478,2
553.530699,0.109736453,10.94924351,2
472.4723296,0.104814638,12.0216406,2
529.0267226,0.104579233,11.64431999,2
562.8688957,0.11222972,9.483287281,2
490.2693614,0.103898065,13.96658719,2
551.3876326,0.108043006,10.92626822,2
478.844233,0.10551022,11.39763569,2
550.5491866,0.10730777,13.28099087,2
515.7738892,0.105439147,11.88870203,2
539.459217,0.10641747,12.21298868,2
508.5831117,0.104235194,13.97273183,2
516.8031659,0.104908278,11.52984675,2
565.0148578,0.107527579,11.71400734,2
497.2753266,0.10579879,12.05145877,2
503.7487006,0.102802191,13.25278325,2
562.960363,0.108544914,11.32882741,2
486.6839709,0.106607044,11.52037493,2
543.040573,0.106451529,12.678157,2
542.0601687,0.109020246,10.74100266,2
484.8620301,0.108051586,11.29442235,2
553.3475857,0.106952804,11.11233587,2
517.263639,0.1064465,11.90633083,2
452.8730063,0.103855593,12.74180975,2
564.6702367,0.107945095,11.3840792,2
488.9255895,0.106376345,11.44491913,2
502.8545103,0.1060145,12.04445398,2
594.7045823,0.110131696,10.39659122,2
492.1973745,0.108609448,10.36729981,2
449.3842076,0.103659408,11.8368269,2
552.9756081,0.107035169,12.30041799,2
529.6929325,0.108623999,10.79498447,2
506.2077813,0.106816145,11.51387951,2
541.7528927,0.108490527,11.14732887,2
526.4701764,0.105630405,11.23178872,2
464.5698815,0.104905921,12.20086695,2
580.3616516,0.111167328,10.19462757,2
558.4745593,0.108930101,9.351537732,2
478.860602,0.106595115,11.00194037,2
531.5152809,0.111825573,9.962316981,2
539.0743295,0.110010455,10.35682168,2
491.2773286,0.107242696,10.16398103,2
530.5071619,0.111764999,10.00313619,2
500.0257942,0.110011324,10.54466074,2
514.816652,0.10759243,10.28064837,2
522.7352845,0.111226354,10.50102181,2
482.854671,0.108977914,10.98428218,2
495.8703816,0.105557623,12.24962151,2
475.1047678,0.108249655,10.602551,2
518.4891606,0.108893342,11.10211419,2
494.3854883,0.105633719,11.66424968,2
567.2841603,0.111329274,10.42533602,2
516.1416289,0.107712927,11.78838413,2
485.7311452,0.103898935,12.68033022,2
539.41224,0.109410743,10.76255994,2
455.7401117,0.109538842,9.626360129,2
556.6168495,0.111631136,8.958281799,2
561.334146,0.111547692,10.00689968,2
472.6616361,0.104804221,11.93575126,2
549.2258687,0.108284465,10.51863147,2
524.5882348,0.111038835,10.0599018,2
476.0269102,0.108890109,10.88303964,2
488.1837151,0.109654771,9.813663183,2
568.6106891,0.111727079,9.473516809,2
521.8496308,0.109139566,10.37070341,2
478.2701579,0.108337191,9.850680714,2
624.9906973,0.113727917,9.093005168,2
497.4898699,0.1112599,8.85613699,2
484.901167,0.111992404,9.319552823,2
519.2544179,0.11229961,10.36313525,2
558.7326561,0.112164722,9.199690629,2
512.0403397,0.110260027,10.60128475,2
503.3835245,0.111377331,10.46184026,2
472.701607,0.105578133,11.8003548,2
468.0735643,0.107023113,11.5654033,2
499.6239211,0.109556307,11.00277728,2
457.1170162,0.106755569,11.49504941,2
518.7225175,0.111246086,10.33410432,2
504.5272797,0.110956948,10.8797501,2
524.0742531,0.107806285,11.53906103,2
525.0067975,0.110894069,10.72792494,2
478.9219899,0.10806004,11.52770929,2
499.8529711,0.107197689,11.50770192,2
449.9789379,0.10640602,11.28064944,2
511.8259986,0.11292331,9.989752119,2
543.8630382,0.108413994,11.37733681,2
491.7145777,0.109742669,10.08848419,2
476.1547175,0.108842221,10.81085039,2
507.6687866,0.109619523,11.55034856,2
503.9546543,0.106887071,11.47378449,2
505.2228979,0.111320764,10.14975294,2
503.1859824,0.109681783,11.4406428,2
555.1393509,0.110589021,10.48898747,2
467.7745486,0.108097574,10.27337712,2
500.0933236,0.108211022,12.35693374,2
469.7361536,0.104617972,13.00060705,2
549.2117927,0.113274669,10.00570545,2
531.7816892,0.111692735,10.50955941,2
543.4216417,0.108570291,10.79421632,2
469.187969,0.109550254,9.786628956,2
464.7873896,0.108173117,11.51169253,2
514.7604537,0.108004252,11.94799958,2
522.6351962,0.11457529,8.63675529,2
499.5748246,0.10767118,11.73680296,2
495.5438753,0.10865542,11.03869429,2
490.2053195,0.108825929,10.18065697,2
451.2519132,0.109775685,10.17270005,2
464.3200421,0.109953795,10.68697084,2
496.1081421,0.10939593,10.32599466,2
493.1245307,0.10981371,10.37941233,2
473.2078167,0.108066183,11.44800697,2
469.1890568,0.107195758,11.87661697,2
503.5083153,0.112316615,9.199006937,2
437.0756497,0.111405104,9.431376673,2
526.5120776,0.109874919,11.76624055,2
500.4255593,0.110200878,10.04267337,2
489.494952,0.111063318,9.722096174,2
530.7216422,0.112344411,8.933453239,2
484.4083166,0.11163389,8.764751039,2
498.4027858,0.109849174,9.876204031,2
613.2855653,0.12239121,4.970886415,2
679.1670464,0.12784459,3.626038801,2
675.2676984,0.115303297,8.606119846,2
646.4296319,0.116959985,7.751070926,2
709.7931117,0.117818904,6.905577093,2
594.4731914,0.11271116,9.398371544,2
625.5135557,0.114588635,9.239500136,2
683.4924565,0.112519035,9.983173458,2
588.2689595,0.111233558,10.37447571,2
537.9316107,0.108111658,10.27414241,2
668.2421303,0.110684117,10.02526074,2
564.3885682,0.107986125,10.66343167,2
612.8605889,0.114277679,8.492088636,2
681.8874739,0.113735087,8.373853598,2
584.0564122,0.110080644,10.28515656,2
667.8634811,0.113943948,9.47102276,2
639.621672,0.110218779,10.05458525,2
601.4224625,0.1102822,8.828576656,2
627.8224271,0.111373407,9.229640199,2
625.5784094,0.110290789,10.16039806,2
539.7579968,0.104255281,11.91767259,2
595.7584509,0.110903304,10.23060368,2
563.5695088,0.107956583,9.740939688,2
553.5952266,0.108438774,10.87424476,2
565.4547737,0.107179759,11.57277952,2
543.5909529,0.103913419,13.80789629,2
567.8262489,0.106950771,11.5481511,2
504.3794669,0.103122692,12.92802529,2
622.5969778,0.108592686,11.25185028,2
568.2947186,0.108717859,11.40944762,2
569.8841994,0.1056503,13.75103207,2
617.1126565,0.10789953,11.85470306,2
511.7293139,0.103069744,13.57670822,2
562.8086938,0.106153029,13.88935332,2
579.8349007,0.105158158,12.60373268,2
524.0304141,0.102440026,13.53792771,2
587.9411214,0.106328882,12.3703018,2
548.3533219,0.104901515,11.48613265,2
555.4037475,0.107238082,11.67611082,2
573.2978279,0.10985601,9.710258662,2
595.7325774,0.106576184,12.32358911,2
506.7239049,0.103668444,13.12228455,2
550.2122627,0.106349273,13.19168507,2
556.6298572,0.103246682,13.46422377,2
504.610189,0.106051093,11.94543861,2
517.76597,0.104979282,13.34360179,2
495.1197404,0.101220723,14.78282329,2
532.6079644,0.105641277,12.98018385,2
511.9011052,0.105737042,13.08535049,2
489.6737002,0.100134042,14.93504259,2
535.292338,0.105441992,12.54204888,2
535.1153509,0.107919041,11.61730619,2
553.2334461,0.103737181,15.19252803,2
555.350632,0.106822661,12.28791715,2
496.4796998,0.106836872,12.40501081,2
520.2976976,0.102605159,14.04376481,2
517.4708326,0.105758308,12.11387903,2
558.5984047,0.110719642,10.79865701,2
529.9772614,0.103422046,13.04625626,2
562.8780514,0.108961881,10.68380003,2
505.5947847,0.109354751,10.31836804,2
580.3915327,0.110758908,9.399169624,2
498.232544,0.108686041,10.40176201,2
493.871783,0.111589253,10.20615389,2
499.6188121,0.104990057,13.51267231,2
573.5222197,0.11062353,10.04848507,2
469.6610979,0.106716478,11.65016247,2
521.6901909,0.107537123,11.54972568,2
519.3248452,0.106607645,11.95809479,2
491.3775884,0.10721587,10.90664982,2
495.0546036,0.109570382,10.97655782,2
517.8169242,0.106545,12.06526258,2
465.9859402,0.107023899,10.90199728,2
458.8455266,0.106387188,11.81303711,2
551.7711453,0.108966499,10.79132767,2
492.83805,0.108105422,12.00528004,2
522.7943936,0.108865771,12.3381173,2
493.7749879,0.105317847,11.92921652,2
475.7161354,0.109720756,9.622290687,2
514.4652988,0.109392644,11.2613906,2
567.3155094,0.109186062,10.62836788,2
461.3990275,0.107215619,10.65656007,2
544.1441578,0.112513439,9.585242272,2
580.8117692,0.110193782,9.890588908,2
467.731382,0.107784346,10.3459214,2
491.1319488,0.110687568,10.16079508,2
551.3110783,0.108298196,12.0057296,2
446.1885485,0.106041339,11.07422572,2
508.2412647,0.111802267,10.02850228,2
489.2064915,0.106988446,12.04159123,2
496.7599811,0.106353767,11.91932707,2
522.1664219,0.111669365,9.993068561,2
456.0504203,0.105880177,12.0331009,2
551.6662632,0.110376909,9.56780655,2
527.3768099,0.113036014,8.996543061,2
466.6530819,0.109116358,9.829467164,2
551.8423473,0.113605427,8.725162074,2
654.466532,0.116689679,8.026375647,2
486.6940657,0.110961037,9.814191177,2
464.6389412,0.110943829,8.374601744,2
528.2140229,0.110758491,10.80085105,2
540.1451754,0.111129129,10.33633543,2
487.3003979,0.110963303,9.826338523,2
520.7242764,0.108745878,11.64433743,2
486.8637806,0.111570541,9.835733235,2
483.2671965,0.111742711,9.172198806,2
516.251375,0.110557881,10.11572968,2
436.1365863,0.107899227,9.980656193,2
492.63665,0.10935593,10.70084658,2
522.5603326,0.109953165,10.92099765,2
517.2903535,0.111629917,10.07635202,2
490.1640795,0.10947307,10.67306766,2
492.8671703,0.108151349,11.07020496,2
536.0227304,0.111076093,10.33956574,2
458.5201647,0.110954136,9.737405053,2
513.6371525,0.108273695,11.47099072,2
519.7866315,0.110406567,10.18921234,2
535.6921426,0.115030529,8.894400153,2
541.2362793,0.10952641,11.20631257,2
516.7473149,0.110801706,10.29122534,2
487.05307,0.11077436,9.665616218,2
481.348018,0.106994583,11.60030384,2
465.6737179,0.106561534,10.86401458,2
531.4919115,0.115829634,8.90838414,2
524.2148039,0.110938685,10.84275446,2
496.0079249,0.108765359,9.640704591,2
531.8575209,0.11320836,9.943078179,2
446.2158414,0.110563947,9.578797247,2
504.2688007,0.110213844,9.743396641,2
486.2451336,0.112129794,9.241390101,2
468.4778572,0.109881693,10.63791391,2
488.5241539,0.106714916,12.46757347,2
509.3796767,0.113746008,9.096025836,2
484.9256936,0.111564782,10.01068247,2
525.3048971,0.111953106,9.769464326,2
486.31883,0.114820193,8.557740979,2
494.4793342,0.115403134,9.56975881,2
474.7041597,0.11095678,10.35567271,2
552.7560304,0.116965558,8.933812904,2
438.5022917,0.108670866,10.80535557,2
570.9336402,0.113221911,10.27800995,2
497.7752565,0.110918331,10.02069074,2
518.5356796,0.116652251,8.895936364,2
518.0781728,0.109630284,11.15317718,2
438.2422817,0.108422252,10.01099172,2
503.4997362,0.113771606,9.049306704,2
530.9602548,0.110214541,11.22957984,2
443.8756147,0.110341123,9.216750032,2
530.107012,0.113349738,9.277465679,2
488.9368798,0.114383121,8.233648361,2
481.613051,0.107066272,12.30086326,2
514.34999,0.112430441,9.384932836,2
474.7134268,0.110400598,9.881922722,2
513.7963126,0.113192847,9.812916304,2
457.3141622,0.107256689,11.45097485,2
553.5838498,0.115959364,8.5443606,2
470.4365118,0.109480968,10.47392446,2
531.4407201,0.113312109,9.391923747,2
473.4220631,0.110976169,10.00299774,2
513.2985594,0.110763803,10.52549941,2
503.6128106,0.108844594,10.7675776,2
492.4169255,0.110324612,10.04888389,2
512.2842126,0.114522103,9.048839031,2
487.5678675,0.111077652,9.199681534,2
580.2121312,0.131985554,4.175496967,2
479.7006358,0.111690007,8.041675163,2
481.3012831,0.115392035,8.404653827,2
654.9219812,0.124933266,4.473968909,2
723.3243124,0.12568471,5.108327698,2
518.8223409,0.119604471,6.921367814,2
550.4830005,0.120235552,7.140168933,2
561.0033826,0.118306808,7.28208555,2
559.0377581,0.118418764,8.219038402,2
517.2111424,0.116705374,8.519630188,2
527.0402319,0.114692078,9.038216876,2
508.1568413,0.114766829,8.7704347,2
529.4590559,0.117703442,7.972914988,2
488.9600721,0.109241724,10.68395715,2
457.8192326,0.108586971,10.47029894,2
497.9129448,0.116632075,7.820585947,2
558.8626964,0.116043889,8.909725739,2
620.5925456,0.119150851,6.953135643,2
584.8416904,0.115857224,8.241401088,2
499.8362388,0.121198962,6.166016449,2
565.9039245,0.122145026,6.856614345,2
457.1659655,0.108740286,10.35897949,2
560.1336933,0.118662438,7.289764083,2
476.7863649,0.116759415,7.425527823,2
538.9656555,0.11381259,9.487417709,2
541.9478891,0.116981817,8.471854898,2
469.0203743,0.112091226,8.6800772,2
599.8322907,0.119258889,7.054976545,2
508.3770535,0.117811038,7.683569757,2
562.1375382,0.109882076,9.594113686,2
572.7151735,0.118488072,7.110671874,2
671.6121965,0.136876208,3.37143951,2
719.7355183,0.125247282,5.521043696,2
737.2353066,0.128968301,4.127230675,2
654.1885333,0.11531412,7.819843028,2
599.5297688,0.116333343,7.820187476,2
628.9258907,0.117446385,6.997495497,2
602.0425505,0.113342262,8.108832535,2
657.0193659,0.118579416,8.492252516,2
574.9781185,0.11204226,8.030414088,2
612.8049588,0.111656771,10.3667662,2
552.6052181,0.112724619,9.883903765,2
637.7034447,0.113513747,8.482335393,2
601.3663035,0.112021089,10.68636714,2
527.463449,0.106093661,12.36888101,2
615.7976958,0.109895619,11.3719948,2
575.4411491,0.106882933,11.98569227,2
578.0097185,0.115001682,9.818759549,2
588.2289451,0.114808749,8.651678402,2
608.6817331,0.106165004,13.19235709,2
553.0514517,0.10702016,11.61667599,2
575.6873732,0.108936386,10.42557867,2
581.315678,0.108336183,11.06332686,2
516.3069862,0.107827101,10.80642642,2
560.9173731,0.109291882,10.9078711,2
536.653829,0.106529983,12.13505546,2
487.4177922,0.111820197,9.054115625,2
514.3310655,0.105807516,13.64277186,2
565.9931995,0.11043494,11.13754819,2
487.4323369,0.110140638,10.48943903,2
553.1177826,0.106850449,14.07307354,2
550.5823122,0.106449282,12.62557969,2
545.495758,0.106848347,12.09635155,2
543.228598,0.107956303,12.36219232,2
523.5340701,0.104544044,12.10683954,2
510.3958172,0.105535534,11.47577098,2
509.0894723,0.10879931,10.62393718,2
516.6574469,0.104606249,12.22138308,2
554.1688452,0.110696734,10.69192805,2
541.9666622,0.107400556,12.81939365,2
550.7869396,0.108229699,10.65102475,2
552.2746398,0.113086471,9.162540657,2
519.0235179,0.105844385,14.03540155,2
497.917984,0.105841601,11.41073327,2
543.4690132,0.110014563,11.72596441,2
515.1552129,0.104935713,12.56034962,2
480.4790167,0.104437212,12.20465218,2
548.9781069,0.110594102,11.25224515,2
465.4308573,0.102423156,13.0860076,2
554.4904644,0.109055277,11.33924785,2
527.0256885,0.109358864,10.54873324,2
540.3250831,0.105560619,12.80824642,2
561.3581363,0.112893184,9.935797405,2
524.9070469,0.111127507,10.64903649,2
489.9321853,0.106418984,11.80847099,2
534.4718318,0.110864718,10.56619482,2
475.9668461,0.107956495,11.83056015,2
488.8794583,0.104736981,12.91182729,2
552.8616201,0.109822527,11.08648363,2
459.5848802,0.108856666,10.46650932,2
566.3044108,0.110397293,11.03385937,2
538.1860199,0.110508881,10.42639301,2
522.3149728,0.111634877,10.81294194,2
544.1702395,0.110652189,10.29361581,2
487.2033613,0.111169777,9.283074899,2
497.7432789,0.111703854,10.4440403,2
476.4780507,0.108328951,10.34837352,2
515.6895409,0.111837441,9.620206798,2
494.8656905,0.109682828,10.65664523,2
602.5974709,0.113066412,9.267781026,2
518.350908,0.11227416,9.36662563,2
474.6387392,0.111156675,9.953907665,2
544.9104109,0.108991736,9.627107402,2
546.8999988,0.114854313,9.105365345,2
466.0856938,0.10883849,11.25227501,2
560.7135803,0.110121092,11.01636259,2
514.1781586,0.111527972,10.39421282,2
467.0433393,0.108443408,11.8360129,2
548.0349234,0.110478694,10.92894963,2
479.9143507,0.111841116,9.232106157,2
456.0078859,0.10895098,11.37001786,2
578.6233046,0.111507977,11.19190252,2
470.2007443,0.109699763,10.12025487,2
547.931098,0.113245381,10.61315175,2
500.6363995,0.10882645,10.83531415,2
481.3454306,0.109332067,10.41917798,2
508.2120101,0.112042474,9.84997535,2
495.9474202,0.109559217,10.27482921,2
500.9237415,0.110872971,10.10934009,2
464.2283989,0.113395212,8.377892198,2
547.880374,0.110340885,11.09889123,2
475.656603,0.111039946,9.378324639,2
558.723757,0.117413514,8.693215093,2
511.3855407,0.110126812,11.12422003,2
547.0717202,0.115165726,8.34808882,2
492.7857782,0.118360936,7.440098504,2
488.9496664,0.111404143,10.40945049,2
525.3444842,0.113265491,9.454761602,2
470.3194976,0.110720159,10.22344817,2
517.3001399,0.110446841,10.8232864,2
496.3370368,0.113418599,9.071881907,2
484.7389623,0.111409301,10.26961308,2
491.7901795,0.109951589,9.95163954,2
551.4631539,0.114978682,9.347891954,2
436.4529237,0.109749536,9.975888901,2
502.6401888,0.107608135,12.39429503,2
483.4374028,0.111275749,9.436487,2
514.3448247,0.114788711,9.505047606,2
516.3393653,0.109093606,11.40577323,2
486.9348723,0.113164219,8.85682223,2
462.5705685,0.111311937,10.10881047,2
517.7296443,0.111423326,10.38897394,2
478.3206156,0.112110679,9.672783172,2
458.9030771,0.110572882,10.6119695,2
538.8608807,0.114110006,9.228728984,2
490.8685458,0.114232884,8.468925282,2
518.849129,0.110248936,11.63592447,2
509.1488878,0.110642748,10.15482828,2
459.0995638,0.110505004,9.734345486,2
466.9688566,0.113843576,9.395571627,2
495.4653147,0.106410036,13.6915638,2
456.2123428,0.107763833,11.08117536,2
425.6233462,0.1083661,11.36558686,2
547.7806999,0.111293664,11.71363193,2
459.488137,0.115155474,8.529159933,2
510.339756,0.112139552,10.74843147,2
529.1403823,0.108448436,11.35503985,2
511.4034005,0.110578791,10.85471802,2
462.1234894,0.108431457,11.35369249,2
491.6818386,0.108663711,11.14176486,2
538.3643438,0.113346579,10.06129475,2
459.1683722,0.108254607,11.20561751,2
463.6964427,0.104473801,13.37858912,2
480.1327546,0.110646166,9.70130087,2
537.8256251,0.115043007,9.295784453,2
473.5343757,0.105239383,12.9317753,2
522.3332898,0.113794442,9.45409973,2
504.3652669,0.114019608,9.88355835,2
506.3340002,0.109498147,10.68118453,2
468.8694927,0.112482593,8.966300428,2
532.3064623,0.114649587,9.592765311,2
557.7185731,0.109509161,10.16203626,2
537.0798749,0.11947931,7.609004964,2
531.9197802,0.115849571,9.2807082,2
474.0586004,0.10850758,10.64027365,2
532.9088879,0.115608245,8.648001495,2
441.4959126,0.108470835,11.05351665,2
496.9558375,0.10879917,11.06849492,2
516.3154883,0.113216559,9.308008264,2
442.6304327,0.105727701,11.60546054,2
510.3240951,0.109648755,10.75752206,2
506.1934732,0.110940381,9.512586182,2
461.2051974,0.110002104,11.18779877,2
565.9117786,0.110843115,9.778901747,2
480.2178165,0.110223823,9.804569354,2
454.4200884,0.106097189,11.98475215,2
509.7836928,0.107553602,11.19011198,2
529.3699112,0.114526493,8.921919957,2
485.681448,0.113476449,9.657795916,2
543.2732893,0.114063606,8.820777748,2
507.2027483,0.11358533,9.71699707,2
458.9630068,0.1102976,10.48545148,2
569.2496526,0.114016384,9.819702965,2
457.3788847,0.113513748,8.868564961,2
468.0857972,0.111895304,9.966004495,2
521.0454797,0.1074523,13.06780299,2
452.4120995,0.110574406,9.247474959,2
527.2817256,0.113979764,9.682955247,2
502.2637691,0.110245254,9.815817592,2
493.6978421,0.112989642,9.151284674,2
514.3092986,0.112711126,9.585742843,2
500.5473241,0.112645422,9.03622787,2
536.3834056,0.12025522,7.493158448,2
430.668521,0.109155035,10.23725241,2
520.3602825,0.116095413,8.090762274,2
493.2050981,0.114835949,8.410962288,2
492.3233102,0.110557081,10.60728596,2
523.9276974,0.113418327,9.443482609,2
432.1299877,0.111388304,9.024188085,2
503.8989514,0.113976387,9.649157885,2
469.1255446,0.107686036,11.04941934,2
457.0426893,0.109460943,9.722208236,2
526.4001605,0.111972611,10.9127899,2
443.0422402,0.104606392,12.03677663,2
537.8027004,0.113530008,9.507714629,2
477.9021875,0.113081894,9.236050038,2
544.5994908,0.110405216,9.987343714,2
514.9271011,0.11583884,8.074732701,2
463.2308955,0.113055751,9.731683847,2
501.8160442,0.110709045,9.256212414,2
458.8359581,0.112137769,8.618408212,2
525.8349465,0.114478318,8.991466801,2
487.6074134,0.109546117,10.08719329,2
542.9160328,0.118884788,7.565827577,2
515.0135467,0.115686997,8.761676596,2
470.1145476,0.109172302,10.01473645,2
555.9104534,0.117232556,8.483728936,2
504.2150811,0.112243032,10.36120639,2
450.6612153,0.105367559,12.03849887,2
555.2884563,0.117062616,8.332468268,2
459.7285724,0.112418567,9.869414585,2
525.2342512,0.112513644,9.842639391,2
488.7719004,0.115274764,8.13166884,2
468.3574357,0.110591488,9.754759205,2
784.2842027,0.118125011,6.921346498,2
639.1619114,0.131945126,3.988231999,5
899.8023839,0.171384225,1.552805238,5
727.4674995,0.116746188,9.203423764,2
635.1723073,0.1281547,4.912402817,5
714.8945808,0.130272106,3.488031988,2
683.6836217,0.128638087,4.1691578,5
998.806832,0.130729312,4.926671206,2
696.0348739,0.137021167,2.173562018,5
772.0590276,0.119849217,5.828580021,2
569.6091718,0.127257997,3.034744457,5
749.966252,0.135200569,2.70477927,2
670.667877,0.144206795,2.01479516,5
848.3337708,0.183901827,3.754241384,5
735.040239,0.13165012,3.554783441,2
736.6817114,0.134805088,4.300212192,5
758.3571477,0.131977327,3.455551025,5
771.4770481,0.132241433,3.505166153,5
760.4863803,0.131554587,3.007387303,5
678.424518,0.121555634,6.288774728,2
711.0281181,0.123961202,5.677659994,2
673.0218997,0.126630642,5.076724292,2
823.6744409,0.141047474,1.874517431,5
721.0887225,0.121698823,6.098743346,2
613.1198453,0.127919371,5.216903724,5
761.48022,0.130603222,3.960703238,5
696.7597272,0.127722116,3.876070758,5
725.6339607,0.137017175,2.271546986,5
860.6369903,0.138946888,4.104550908,5
867.1033287,0.140508141,2.517930923,5
807.7199457,0.131394601,3.912308267,5
746.9987039,0.123000867,4.194942548,5
779.1012926,0.129273729,5.182813167,2
834.5007289,0.121805265,6.681428882,2
701.3541586,0.135234652,3.314495123,5
729.9254405,0.12735962,4.91948498,2
832.2124796,0.139811981,2.009738089,5
732.9768394,0.139564468,2.841675759,2
909.007684,0.123238718,4.631244217,2
670.5758296,0.139335756,1.986851106,5
724.5249049,0.127992936,3.963457253,5
728.7674332,0.124979003,5.042236517,5
670.3914335,0.125600463,6.359556336,2
850.1181776,0.119431822,6.205238892,2
733.2971707,0.140559059,2.949700813,5
811.9713585,0.142644607,3.165062016,5
567.1073421,0.129362992,4.001584747,5
568.0460875,0.113579975,9.837778797,2
851.0680894,0.13508675,3.917367906,5
689.1045482,0.122540435,5.37179124,2
674.0077448,0.131458509,4.813959215,2
1211.593142,0.204469622,6.337798209,2
627.9043237,0.116000857,7.685148994,2
830.2726938,0.142175422,2.545591707,5
810.3772999,0.136173318,3.383707095,5
811.6200616,0.135418496,2.813265819,5
776.2274622,0.134316202,2.778126271,5
752.3194933,0.12689218,3.951200545,5
887.3798079,0.137385576,3.77744209,5
807.2959047,0.131252501,3.921198427,5
625.791209,0.120034759,8.858424681,2
993.4289165,0.151462973,1.793911706,5
869.6213348,0.130067333,5.84614672,2
758.0213328,0.134657265,3.785007892,5
707.8860244,0.128718988,5.512487366,5
719.7923279,0.130596347,3.861001711,5
722.4688274,0.125779351,4.381689422,5
953.4835323,0.181305628,6.15485978,5
645.9807279,0.120124734,5.493128579,2
658.4586625,0.127025849,5.631823307,5
794.0014169,0.116127458,9.478797109,2
706.6152961,0.135911462,3.910975036,5
969.1299116,0.144520363,2.708993525,5
1104.808577,0.182573908,3.472216871,5
924.588348,0.123465685,5.130478542,2
810.2388781,0.150947629,1.412419443,5
679.6853162,0.122134073,4.881450479,2
880.8838368,0.141501622,2.070006583,5
781.6910422,0.132403911,3.462942267,5
719.6561149,0.124997321,5.000882336,2
527.4894621,0.196161963,-0.278755644,2
626.8765009,0.121027053,8.535272588,2
759.7323434,0.130603415,4.737678942,5
783.0815959,0.12835333,3.332644117,5
688.8913407,0.125200112,5.522714006,2
789.7400017,0.138247889,2.610412094,5
732.7708768,0.116297011,10.12240002,2
623.1790663,0.125287244,5.13444374,5
654.4458911,0.115222485,8.609923112,2
753.6048236,0.137026059,1.97093176,5
829.1129432,0.218700065,3.069581372,5
738.8511908,0.117803359,10.08523424,2
655.8663059,0.125651683,5.108515901,5
850.1837377,0.134355872,2.731972698,5
1235.41284,0.211612633,5.869436078,5
625.8372765,0.117101463,9.226625622,2
775.3674628,0.118551608,9.057958215,2
793.8919342,0.136920805,3.440296047,5
937.5349604,0.145476129,1.854969422,5
797.158512,0.209781317,3.637208309,5
658.2282903,0.120794026,7.903784488,2
764.2233481,0.129605428,4.728196874,5
660.7038833,0.119780194,7.037455415,2
750.0314671,0.128610637,4.922031378,5
1027.544749,0.148278244,1.917798762,5
622.1999161,0.113630927,9.135975609,2
913.562738,0.128008758,5.189658618,2
674.0363131,0.13288555,3.545386634,5
737.2994135,0.110571743,7.369834444,2
786.8246336,0.141155578,3.469536003,5
789.9966737,0.132107758,2.873991655,5
811.8238868,0.132781493,3.524455596,5
916.0508151,0.14469354,2.36631254,5
1169.056323,0.209451303,5.561481489,5
763.1670401,0.128425776,5.480786286,2
896.8805858,0.120205321,6.04907222,2
798.0543064,0.144687224,1.988942227,5
627.8930491,0.118277411,8.060514247,2
748.9877703,0.133427714,4.818668994,5
871.670701,0.140101148,2.830119914,5
688.18549,0.124734774,5.408566601,5
799.7577749,0.13112478,4.575749823,5
789.3621538,0.129197053,4.0012019,5
640.3415038,0.121394723,6.866235621,2
609.4571466,0.119472888,7.935162134,5
747.9897416,0.122886135,4.676776276,2
591.1350811,0.118700974,4.81785478,5
764.9607085,0.112837277,8.530369522,2
657.2846337,0.129341546,3.891674528,5
795.1376299,0.226849004,2.490773267,5
684.3695896,0.10996105,13.80128642,2
559.2446189,0.116397814,8.081130702,5
771.7068023,0.128082847,4.098886518,5
691.0425727,0.111780576,10.12319685,2
693.4636718,0.13085203,5.517637473,5
763.1060504,0.126495356,3.873214035,5
1251.087343,0.189767466,10.29058865,5
668.6018185,0.107398963,12.68430133,2
581.6534715,0.121364707,6.66922166,5
888.7788846,0.134139346,3.451419669,5
902.8506046,0.125844765,6.867947758,2
639.5676075,0.12782753,4.123755372,5
832.107016,0.208751852,3.801954607,5
720.9653335,0.113228505,12.88407546,2
568.6327325,0.122008743,6.282506276,5
862.5368305,0.137370752,3.127153132,5
474.3600614,0.216689611,-0.608364237,2
690.4624925,0.125067187,6.526243344,2
745.0127821,0.137246009,2.817690939,5
833.841425,0.134745841,4.665128682,5
691.0457665,0.118984508,6.258060638,5
674.0367653,0.125836424,5.830648536,2
625.7490322,0.120218676,6.744145917,5
473.8133056,0.175782877,0.286168346,2
813.5240709,0.127572527,4.394533732,2
1307.798577,0.182790135,0.358784184,5
833.8574294,0.144168393,3.470671062,2
1536.045919,0.168486789,2.29236241,2
1192.110766,0.18873092,0.178347279,5
1075.958097,0.154315658,1.710372213,5
875.657735,0.125884961,8.061225904,2
617.4885267,0.132567289,3.135852635,5
776.72078,0.128723978,3.971638778,5
546.0663778,0.22999367,-0.964057081,2
673.6187541,0.123161938,7.407403728,2
936.6915634,0.218179514,2.584130325,5
655.5711923,0.11032023,14.97829556,2
572.5463199,0.121285074,5.557102872,5
725.0557582,0.122133085,4.811995144,5
724.1543966,0.131119956,3.163228956,5
760.3712762,0.127562065,3.668623884,5
1037.063324,0.224017169,4.499642147,5
750.3966303,0.111996087,8.651534475,2
673.0973331,0.1284299,4.671917741,5
941.8526459,0.141268313,1.760679424,5
941.1863457,0.150011154,1.411081295,5
534.4548857,0.116479413,15.88239879,2
767.7200995,0.137656753,3.77572091,2
818.3595788,0.142943591,2.906836164,5
816.6683941,0.129702825,4.207800696,5
665.7697621,0.118451464,6.609769785,2
931.4253552,0.123563266,5.330893177,2
751.30716,0.139376036,2.413695123,5
680.3365058,0.123238382,6.563375194,2
721.9521981,0.130124522,3.18685574,5
852.4243841,0.20806574,2.980635632,5
710.720353,0.122577637,6.225431496,2
901.2985428,0.141958729,2.913138575,5
659.9833829,0.116979121,8.766786355,2
742.0399984,0.127362546,4.961859658,5
916.0839543,0.140620758,2.861565197,5
890.1664722,0.135124295,2.627999717,5
720.375232,0.128635185,4.052647089,2
772.0294987,0.138651345,2.849418371,5
714.1322052,0.120457694,5.31064998,2
852.6709975,0.142566086,1.830179434,5
751.4634708,0.130951348,3.872830551,2
868.0049667,0.138708994,2.954869373,5
964.1806059,0.126386705,4.602456834,2
703.7356661,0.132940874,2.921671216,5
