WaveletEnergy,SignalSTD,Kurtosis,BeatType
643.9783292,0.117765389,20.35116485,0
742.8744381,0.127163666,19.45850032,0
712.5187006,0.122503947,21.46593203,0
820.1343844,0.135014375,16.02594116,0
823.4376842,0.123910293,15.28403215,0
1131.82562,0.215988742,0.628287812,9
1229.897227,0.175187254,0.941204213,9
976.6203286,0.189837909,0.839639546,9
1165.289714,0.217323293,2.476483617,9
1113.651805,0.205370138,2.478136638,9
806.9226387,0.13280455,16.98418987,5
1022.208085,0.153491057,3.136889724,9
569.7631899,0.121152177,19.20570385,5
1194.88737,0.18217689,5.913117792,9
809.2895003,0.133552226,16.35977451,5
1155.127046,0.155730339,10.45434795,11
665.8594186,0.127586819,7.795460533,5
707.7157364,0.129164783,13.54169322,5
805.6245923,0.162510784,11.50826183,5
741.9550533,0.130624441,19.04496198,5
783.2047262,0.129208545,9.495891031,5
1288.318959,0.193068451,4.138436033,9
1022.739455,0.183638703,1.99938679,9
967.37172,0.164241113,2.308486723,9
634.56854,0.133994802,2.710240362,9
1255.058122,0.175144106,1.01729621,9
859.8949685,0.132612605,14.45931625,5
797.2760249,0.142641122,4.701323811,11
919.8194305,0.18631739,1.882354756,11
1514.361852,0.181466947,1.87826973,11
1166.348148,0.174438675,8.752126504,11
820.5739863,0.134902846,20.02301895,11
808.6195441,0.13129052,26.52598506,11
820.2969947,0.136557531,20.13588115,11
771.1593915,0.131634389,19.92518641,11
749.4474113,0.127906842,27.40352152,11
707.0662252,0.127837792,26.99119803,11
721.4653993,0.125291448,26.44631229,11
698.7325158,0.12696988,25.59722477,11
734.0298929,0.127626967,25.52516374,11
673.3678885,0.12532328,26.78867704,11
789.1410571,0.159399974,1.972650491,2
801.6649848,0.212777465,-0.006674347,1
973.2274842,0.156905161,3.620612774,2
855.5349935,0.170501443,3.296502117,2
742.48076,0.129725491,10.04630607,2
763.4141757,0.138570192,10.37976911,2
932.0807497,0.156164983,5.364614217,2
797.383158,0.14058567,8.422575827,2
715.7228462,0.15689672,3.073386982,2
763.9083189,0.169297377,1.171891053,2
311.4436978,0.208497723,0.755406456,1
716.4485805,0.218979289,0.663494796,1
524.7753412,0.233986888,-0.784149394,1
560.4638244,0.205916681,-0.416264501,1
1158.749702,0.299614624,-1.386515588,1
350.8923503,0.237033741,-1.172736224,1
584.0845477,0.214507878,-0.276908983,1
845.179739,0.19751298,1.230238451,1
1138.749252,0.210721274,0.394222164,1
733.8207248,0.184572171,0.528926931,1
690.0956754,0.245052637,-0.301183,1
928.037342,0.185966602,1.38671796,1
442.2323265,0.265440418,-0.539943882,1
412.6943262,0.293369181,-1.106017107,1
777.5275866,0.202178538,0.696828375,1
1161.943747,0.205755289,0.418023529,1
473.9517669,0.272007977,-1.067154338,1
953.7828227,0.248711053,-0.360393941,1
827.065529,0.251008255,-0.506550041,1
753.0551316,0.285535281,-1.144856454,1
817.1213919,0.21134203,0.190465354,1
1718.672118,0.217176717,1.154625291,11
832.1186155,0.171674639,4.900909579,11
1002.563764,0.180151259,4.717995691,11
1557.23813,0.192750749,3.927404367,11
1103.884517,0.173835036,7.537388911,11
1582.105025,0.196038927,4.304227874,11
1618.949904,0.194743339,4.165352162,11
1529.712662,0.191941321,2.84694486,11
1545.752254,0.194104089,3.438256889,11
1521.328583,0.188758803,4.003204915,11
1431.098751,0.18699797,4.056891974,11
1526.093495,0.184077115,5.519089707,11
776.5855959,0.128451436,24.48161097,11
1431.092346,0.184013986,3.994745162,11
1208.55572,0.176149108,6.324687861,11
1508.501254,0.190534256,3.121229454,11
1621.935373,0.197680315,4.546576651,11
1440.449378,0.183797188,4.336267134,11
1601.180023,0.198254609,4.535687663,11
1474.503885,0.186153545,4.007662948,11
1599.451555,0.198112061,2.648820963,11
1512.847377,0.190488878,3.672587368,11
1464.897218,0.180777441,3.845882471,11
1615.570621,0.195474716,3.908921107,11
1516.507021,0.189775151,3.923881406,11
1430.326703,0.184406378,4.064430635,11
1593.65413,0.194033844,3.68149409,11
1501.69191,0.186876287,3.888489841,11
1613.499472,0.191900744,3.697046001,11
1587.822305,0.194382772,3.360423712,11
1558.493762,0.18808763,3.847412307,11
1609.575769,0.197819384,3.185918357,11
1432.151809,0.185089255,3.952647616,11
1802.580792,0.213140711,1.798151434,11
1642.739119,0.199657166,4.113833411,11
1365.887051,0.181970902,4.551509085,11
1130.326252,0.162624805,11.68070703,11
1504.684494,0.177795606,4.231016281,11
1214.117135,0.164175551,8.692272004,11
1070.72449,0.162419271,9.364899487,11
952.9226953,0.142063431,17.04982995,11
1047.137965,0.1625496,8.96711198,11
999.3033869,0.147245368,12.09832966,11
1430.898707,0.186051835,5.089838804,11
1471.615671,0.182572463,4.164758814,11
1074.274392,0.160155978,12.28302262,11
795.7952693,0.150870513,9.905564402,11
921.961002,0.154301528,8.148287329,11
1096.026213,0.184698028,4.59197152,11
565.8487617,0.125157725,12.35032928,11
865.9594967,0.155217189,9.834310157,11
1073.882073,0.162309755,10.32636547,11
895.6037367,0.140809507,15.75709905,11
846.5533144,0.134129057,22.29863104,11
1150.569696,0.157130521,7.945361028,11
894.0477332,0.154413344,13.07057723,11
1185.986347,0.168745122,5.179121572,11
751.3073938,0.133499527,15.75419914,11
684.506808,0.124150359,25.88064016,11
691.222904,0.123125038,26.93145929,11
1160.789297,0.172386883,7.437558166,11
1052.915676,0.173273817,5.08179904,11
794.0486533,0.135961212,12.64734716,11
796.8390956,0.148016884,5.921351174,11
809.7549586,0.155392374,10.52169519,11
743.9221623,0.130823599,22.86347939,11
950.8564107,0.170088111,6.828820991,11
849.8196336,0.188297143,2.556455884,11
1257.110625,0.182810353,6.274935552,11
1088.250102,0.159300736,10.89441225,11
833.3152986,0.136111828,18.64711744,11
829.4697059,0.140720211,14.37612025,11
1700.950592,0.200553968,1.916217893,11
744.1862549,0.131526609,24.96637077,11
1102.330328,0.174831669,6.368179478,11
1101.422691,0.170406749,7.06901036,11
834.4109838,0.132230114,24.31976944,11
1061.80762,0.167119674,9.162751969,11
841.7120246,0.135892541,19.02919719,11
869.1788335,0.143648835,16.96861565,11
1048.128913,0.168384146,9.292392737,11
1196.611189,0.181143119,5.871221027,11
866.9292098,0.140668924,18.23313299,11
861.8110754,0.138087078,21.2363931,11
1319.239048,0.185502198,4.213710257,11
1049.544075,0.16506202,9.746691705,11
1036.504973,0.168419925,7.216603756,11
989.9633509,0.146448241,16.74628751,11
813.9727061,0.129484344,27.36829142,11
907.1315482,0.142861834,18.24278443,11
859.8555091,0.133997147,19.70175704,11
821.7077713,0.141849169,17.09153688,11
745.8099051,0.127589513,28.02893715,11
1387.657786,0.185015434,3.323581806,11
897.5840862,0.150888134,10.06195682,11
768.3922934,0.137186378,21.83329844,11
732.9104662,0.126316375,27.57903947,11
840.9673595,0.139686724,19.68811141,11
840.2296393,0.141389568,16.47114572,11
679.5939124,0.139771796,14.85187138,11
1032.930498,0.169442936,7.593861856,11
829.4164016,0.134677274,23.07737439,11
1051.205987,0.178511076,4.956080401,11
868.6819114,0.138911947,15.84262701,11
975.9868373,0.154410661,11.41255974,11
594.5371989,0.128911758,14.27565704,11
919.1224966,0.163259507,7.819053286,11
1155.066495,0.202229677,2.645999586,11
961.6647907,0.156140046,11.52128994,11
862.5111801,0.150915202,8.139752006,11
868.8014284,0.155702132,6.375500612,11
1431.865921,0.189009984,2.907778384,11
1646.793601,0.21175915,1.540684988,11
1034.290257,0.170889712,6.409972239,11
1038.953868,0.159516334,9.688125088,11
1049.500006,0.169101878,6.336054609,11
1534.234984,0.194418111,3.039705003,11
1596.577281,0.20299902,1.751122143,11
1611.973298,0.208816759,1.701185367,11
1343.486483,0.180006864,4.228411969,11
1140.33158,0.178425331,5.866005764,11
870.5998676,0.131213261,5.770532445,2
995.5489811,0.136541445,5.382226178,2
1064.393094,0.135389357,5.909747797,2
995.0962525,0.135801802,4.847715591,2
810.574564,0.138881847,5.272207792,2
823.8627051,0.133687969,6.118898264,2
853.427465,0.135961177,6.861725154,2
1041.530852,0.149412529,2.686630888,2
820.7604478,0.132595278,6.179914051,2
888.7820722,0.136107431,4.862215035,2
849.6805662,0.139521836,5.763664859,2
1003.671619,0.146222399,3.844938316,2
811.4346747,0.127113828,7.90388812,2
919.337679,0.137586172,4.077362741,2
953.0162698,0.145560169,3.671178547,2
970.4765794,0.144445417,4.672859015,2
981.7979676,0.15189188,2.915375072,2
849.6466669,0.14100662,5.143277684,2
928.244897,0.143406375,4.556132331,2
1022.444931,0.145009264,4.141679227,2
980.4146042,0.138821395,5.557787355,2
932.3619611,0.134029532,5.818203425,2
916.7096183,0.146800902,2.523766667,2
940.6266185,0.139449419,4.831549165,2
996.3219731,0.157012576,2.051081495,2
868.1463257,0.133232898,5.542074211,2
906.7707089,0.150732376,2.409648082,2
929.2914324,0.13627257,6.043926738,2
621.4559497,0.12865584,6.984563009,11
878.6180196,0.149947958,5.698537875,11
866.8495298,0.150677598,5.720874211,11
1347.34007,0.179736374,4.290270557,11
1291.992395,0.179713243,3.981165208,11
1345.991484,0.184086886,3.690129313,11
1228.245398,0.169641248,6.114552599,11
879.3638945,0.147481548,6.312987542,11
1094.516169,0.160799516,6.399430216,11
787.114418,0.144953735,6.063704165,11
856.9060786,0.156136962,4.702636602,11
850.766265,0.144337969,8.651647124,11
924.275827,0.158923852,4.997770099,11
1157.485784,0.159450971,8.745975742,11
948.0792445,0.148138579,9.20047562,11
1121.12746,0.160981601,7.587609302,11
887.7156833,0.146524337,8.963598452,11
1155.318311,0.165956983,6.615210572,11
1271.300518,0.175378286,5.023365836,11
1316.698927,0.18320942,4.05702422,11
1201.125536,0.163831076,6.787087141,11
1265.944441,0.167803258,6.716904014,11
1068.733948,0.160008458,5.904458868,11
1167.9866,0.161824843,6.918400341,11
920.6833967,0.151986194,5.995104472,11
899.0073907,0.152337979,6.465839727,11
894.4565666,0.147440691,7.422507491,11
1083.385971,0.157104107,8.092214225,11
1198.352005,0.167965786,5.885640099,11
1112.639118,0.16121356,6.3617875,11
885.6151305,0.1487933,7.807092902,11
911.2291767,0.15088555,7.363766864,11
837.3133117,0.146171204,6.973832418,11
953.7790475,0.151546332,8.488063643,11
1104.406925,0.157904791,7.813744373,11
1355.033357,0.183331777,4.037176747,11
856.5040075,0.149816326,5.644938758,11
1267.713825,0.174002051,4.744046509,11
931.6997911,0.151820432,6.98551967,11
815.5861842,0.143941138,7.718373893,11
1231.977053,0.167740648,6.713170911,11
1356.601925,0.183240676,4.24667394,11
1441.168326,0.19556991,3.423818343,11
895.2233416,0.148673073,6.966448306,11
907.7113111,0.144730923,9.174253009,11
957.6372226,0.151022303,7.097833473,11
1135.702041,0.163227976,7.103996934,11
950.2527643,0.158005349,5.448505488,11
1051.86915,0.157310092,7.227650029,11
1050.749915,0.157427481,6.989340461,11
1220.917029,0.167534301,5.94066339,11
1017.817502,0.154454982,8.603409237,11
1083.894423,0.153683965,9.555088843,11
1167.191598,0.161150685,8.223718409,11
1286.040125,0.178939148,4.491410756,11
1238.374871,0.16907196,7.508347778,11
986.620223,0.157012484,5.992077336,11
1039.101951,0.16357852,4.419558758,11
1132.908432,0.164483566,5.61810846,11
1120.974554,0.157163481,9.122337358,11
1013.897223,0.163714544,3.304234507,11
822.3379513,0.144699784,6.200891012,11
1448.197746,0.192599818,3.455746558,11
1143.227217,0.163657304,6.426366472,11
1011.893872,0.159114046,5.69404765,11
902.9029788,0.151426485,5.178995636,11
968.9831951,0.15745557,6.258620864,11
1186.131809,0.162247673,7.324453976,11
990.4970333,0.153631518,7.001105331,11
1202.682266,0.174084166,4.846889807,11
1170.023969,0.161792878,8.186691039,11
1238.91761,0.164145447,7.755082773,11
1190.382652,0.163712549,6.997172071,11
1071.89997,0.158694079,6.234766618,11
915.0706247,0.151847647,5.824417932,11
978.056917,0.155107443,7.425571179,11
1231.406554,0.169009224,5.999198685,11
1231.786758,0.168012127,5.543471568,11
1324.830347,0.182137256,3.586321242,11
1047.121042,0.156620924,6.243875033,11
994.7229672,0.145401273,9.770993052,11
746.8320029,0.142750934,5.896187922,11
1226.426072,0.169418593,5.646413575,11
1277.355093,0.17337913,5.389250678,11
1084.715076,0.161346502,5.993198381,11
1294.177781,0.175007149,5.508067598,11
907.4774774,0.151016714,5.709756602,11
681.2234136,0.13670249,6.489746426,11
1215.349843,0.171173468,5.298839198,11
1233.558164,0.171523058,5.209692816,11
1394.456098,0.176661958,6.296779192,11
877.1973983,0.150763832,6.82297203,11
873.9292554,0.150058407,6.113134984,11
1199.476734,0.164781128,6.308212395,11
949.5527946,0.151303996,6.878758934,11
723.1519602,0.140274743,5.741577892,11
1007.778824,0.15054346,7.526480536,11
1149.539317,0.161147772,7.659725189,11
1332.669383,0.174666689,6.879115472,11
1090.333536,0.155592633,9.312024322,11
1273.631449,0.170437493,7.842185121,11
1321.174592,0.168860006,7.612251943,11
964.7092737,0.147217268,11.05521865,11
1219.41384,0.163508866,9.188033663,11
1170.522943,0.160231594,8.912422182,11
1350.809596,0.177383146,5.303689933,11
989.4255954,0.153374462,7.228593064,11
1222.596054,0.170597774,4.709060201,11
968.2905893,0.155062318,6.083226486,11
1277.652534,0.170585214,6.785606472,11
976.6163476,0.151200422,7.096464495,11
1268.82487,0.173746208,4.987871292,11
1149.063881,0.159668237,7.499285295,11
979.3495198,0.152454749,6.411247879,11
1013.192286,0.155867908,6.878372728,11
1143.91325,0.165605718,5.371703467,11
1067.968074,0.15972295,5.608809589,11
853.5566248,0.146351308,6.364381862,11
906.1462365,0.14977204,5.524996386,11
1181.265015,0.164761569,6.121553755,11
1359.357321,0.183633824,4.298460266,11
1327.01771,0.174735979,5.553114168,11
1143.937241,0.164189788,5.691311206,11
921.4785653,0.152747654,4.660849023,11
812.4840181,0.143894255,6.372352179,11
1085.677441,0.15982029,6.614193519,11
1007.669529,0.154850345,7.581871488,11
1136.704287,0.16312361,6.54187342,11
1354.130784,0.185382509,4.104984676,11
1224.333166,0.167451742,6.466339833,11
1504.619864,0.202869887,2.698957003,11
767.2725912,0.140884325,6.818752929,11
997.4503247,0.157278049,6.544183888,11
887.3113861,0.150381669,6.544049201,11
1186.63231,0.166068304,6.05342218,11
1061.757616,0.158747716,6.309978238,11
1210.871279,0.169203116,6.514423376,11
1134.45211,0.157993889,7.130675104,11
994.3628679,0.153311546,7.796686127,11
1249.987567,0.171286389,5.164951932,11
1182.436677,0.163065081,8.580786718,11
1222.138868,0.167576913,6.593015184,11
1361.097973,0.184555291,4.249123909,11
1113.170005,0.16105674,6.666569961,11
1127.133253,0.160440118,7.690801016,11
1143.08009,0.165058488,5.044359634,11
894.3115485,0.153397932,6.859096205,11
947.6178656,0.150415967,7.770154895,11
1127.234137,0.157210628,8.134094976,11
1176.949194,0.159342892,9.130573139,11
1042.428671,0.154281601,8.418851995,11
1152.747406,0.1609906,8.766828891,11
848.270342,0.14390741,9.92929232,11
1071.646292,0.153874515,10.20897393,11
1228.411295,0.163049698,9.30647351,11
993.2783775,0.144596318,10.47278356,11
937.9528356,0.151980735,6.884376159,11
1152.315575,0.159575253,8.53852729,11
1192.205623,0.160425894,7.075614133,11
1204.674177,0.166983626,6.72300911,11
943.9822093,0.15069851,7.178882722,11
1238.740555,0.170805732,6.320421154,11
893.6048544,0.147367875,7.562776485,11
1126.902023,0.159523999,9.134239846,11
953.6291833,0.152483885,8.599483296,11
1369.839748,0.185423883,4.543305624,11
1205.203654,0.164436806,7.38567694,11
1001.044827,0.152900321,7.956734914,11
1625.952599,0.191601606,3.95622485,11
1189.370805,0.182569343,3.736605034,11
1256.673922,0.164622583,7.972059056,11
1095.471625,0.155213175,7.34828423,11
1252.010347,0.168048164,6.106603006,11
1044.279587,0.155299597,7.188329914,11
1121.590719,0.161950144,6.39887463,11
1071.187879,0.154839883,7.06219506,11
1421.708143,0.189096145,4.031770561,11
1404.577108,0.191083824,3.923076625,11
1223.01242,0.167617481,6.493044288,11
1234.825401,0.165346908,7.924681928,11
1259.649836,0.164190125,7.838318971,11
1383.313155,0.18529242,4.458197778,11
1281.123906,0.173585509,5.790950019,11
1102.608756,0.160065326,6.330248211,11
1077.709227,0.15597352,8.31187379,11
1306.672209,0.17523928,5.534655955,11
1032.920537,0.152008214,7.463474857,11
1124.876843,0.157323694,7.822491589,11
935.5314365,0.149270845,9.21685467,11
928.1227252,0.145765942,8.520023321,11
1131.324591,0.161563398,7.614851426,11
1145.698001,0.161748291,7.308672519,11
1528.868234,0.1950063,4.168182145,11
916.0557768,0.148220771,8.945150129,11
1141.092563,0.161444367,7.793198554,11
1401.598634,0.177034157,5.096414489,11
1075.31849,0.158029062,8.152958604,11
995.0387196,0.159041138,5.360204813,11
855.2858649,0.147387893,8.3766191,11
1480.542762,0.183184358,5.410170884,11
1407.444822,0.182070975,6.338046792,11
877.9184635,0.145494914,9.126070365,11
1025.052297,0.149361161,12.15232535,11
1402.473675,0.178671431,7.407687944,11
842.1241442,0.144939272,7.920178514,11
1308.349032,0.176366405,5.3427128,11
917.2348533,0.150222007,8.355200928,11
1135.613367,0.159219707,7.997632585,11
1372.910652,0.183758546,4.555395593,11
1419.250304,0.190514057,3.754155378,11
1258.871374,0.178728369,3.89901166,11
994.1842606,0.150834443,9.214504795,11
1552.018144,0.199482081,2.979716799,11
1400.018219,0.183824887,4.157811656,11
1007.544592,0.160818767,5.639066476,11
873.0434484,0.146285021,6.232495121,11
1396.800728,0.177268173,5.009358869,11
1260.814046,0.166370746,7.074703449,11
1366.399878,0.181628092,3.329991061,11
1153.911469,0.188859957,1.868015767,11
1477.689754,0.191855105,3.286317606,11
1157.331363,0.175443637,3.766061009,11
1520.690868,0.203039511,2.224046629,11
1403.598058,0.182962665,4.490264867,11
1266.049592,0.160353874,7.936508284,11
1177.335344,0.161397304,7.907209236,11
1205.618541,0.166990993,6.339042296,11
1481.280553,0.189843506,3.251590696,11
1394.477509,0.194423537,3.267939895,11
1135.85049,0.163375183,5.72941288,11
1078.530235,0.160194254,6.860882013,11
1001.881533,0.154060283,8.003363496,11
1003.197959,0.16727785,4.338656989,11
1112.535107,0.155792007,10.43015416,11
1338.662189,0.174360396,6.041863538,11
1201.048646,0.168021781,6.185534345,11
909.0960839,0.154816465,5.703743858,11
977.7841545,0.174780273,2.677466594,11
1418.772303,0.188841209,3.375640446,11
1397.612068,0.186587007,4.031218566,11
1293.36502,0.17133076,6.071383864,11
1310.317741,0.178989228,3.538214781,11
1261.822398,0.185011542,2.707859106,11
982.3955697,0.166727381,3.301422158,11
876.2491783,0.147117657,4.789161744,11
1246.892979,0.174339078,4.664023307,11
1224.686662,0.16641465,5.352876514,11
1243.818578,0.172394456,5.809816797,11
1137.121097,0.164123651,5.941404444,11
881.0770203,0.145659081,9.46092942,11
1203.274284,0.162021317,7.968734951,11
1060.780065,0.15962324,7.390043823,11
1204.477014,0.162271271,8.359349347,11
1188.927364,0.16920166,6.623420902,11
1224.33396,0.166895729,6.343825665,11
1313.766798,0.175392628,4.608046567,11
989.8982157,0.162010185,6.372929599,11
1021.053596,0.150978149,9.531405676,11
922.1709229,0.150250385,7.037236481,11
769.5123245,0.138413551,7.101898342,11
883.1394341,0.152660415,7.577046325,11
1334.4159,0.171015667,7.050388377,11
1119.01649,0.166448312,5.317638264,11
1272.235843,0.17034609,6.204333582,11
1402.199801,0.193872921,3.452350282,11
1492.109768,0.201431949,3.412139877,11
968.3399611,0.167268603,4.396278504,11
1386.474904,0.181659298,5.316836163,11
885.6618653,0.167692589,2.636348862,11
1113.047983,0.16029036,7.344551164,11
1204.270447,0.189264568,2.57195435,11
1255.329467,0.172848281,4.991380702,11
1003.641506,0.157168936,7.162787147,11
1415.684704,0.178421473,6.55107376,11
1501.40812,0.198448136,4.002237977,11
1523.466314,0.200908184,3.810317005,11
1235.113809,0.167107542,8.161394058,11
1479.200007,0.194569605,4.152636731,11
1079.219466,0.15723149,8.996417799,11
1482.072625,0.194494553,3.671034974,11
1264.394218,0.170338718,6.748735527,11
1395.59449,0.184114425,4.197871406,11
1172.707277,0.169343539,5.543394981,11
1130.214559,0.166211987,6.392762073,11
1214.074287,0.167555784,6.722909768,11
1169.145328,0.168867954,5.370374187,11
1481.170374,0.188090431,5.1739605,11
1261.653114,0.172154278,7.15315036,11
999.2374655,0.150163632,9.786170757,11
956.0069767,0.1515954,8.436660924,11
1186.012932,0.168597066,5.531499805,11
1047.496449,0.15696537,6.798801901,11
1440.290206,0.195378807,3.144778972,11
1160.111494,0.17032954,5.250300543,11
1108.748828,0.15991246,7.632517099,11
1078.940114,0.158179217,7.019971807,11
1216.504527,0.164127105,8.162795822,11
1660.370364,0.194227514,4.896327184,11
1028.396627,0.158855937,5.794420703,11
1364.408416,0.179481249,4.577611066,11
1200.993182,0.176246708,4.014595695,11
1237.165311,0.164566065,7.536250886,11
950.9413429,0.154451917,6.968592675,11
1044.015783,0.156185555,8.186976735,11
1429.571722,0.185647684,4.395992834,11
1097.855608,0.154616079,8.887119845,11
1221.054219,0.169049715,5.595990361,11
1100.354636,0.159548574,7.022629535,11
1137.777125,0.164008982,6.209156335,11
963.6161437,0.156245737,6.577259741,11
1089.009989,0.164367203,5.372288319,11
1018.066974,0.158252027,5.379887745,11
1134.993091,0.165146556,5.785303822,11
983.7627184,0.157182009,5.701333842,11
1583.108629,0.201171196,4.540288321,11
1337.113389,0.174252515,5.281451957,11
1552.248825,0.186847937,5.044858351,11
1130.925301,0.164161822,6.397701633,11
644.1177454,0.14112312,1.257554768,11
1521.382164,0.184671415,6.371427918,11
1018.521949,0.161203895,6.366161819,11
1300.516693,0.174296898,5.116937224,11
1433.012794,0.209655389,1.598818187,11
1340.129843,0.181715675,4.457379093,11
1326.274669,0.181977714,4.129410611,11
1231.867903,0.175036714,5.87806867,11
1178.458714,0.160870795,7.090605007,11
1103.486642,0.155812179,8.245288727,11
1124.71458,0.159101828,7.398348568,11
1108.382361,0.158082357,8.701450677,11
993.855813,0.152417592,8.856748989,11
1081.026148,0.15599422,8.988106609,11
851.5901296,0.147700752,8.665514389,11
1488.267099,0.194983727,3.33403235,11
1300.533471,0.172125343,6.881671651,11
970.6837253,0.158108955,6.112787904,11
817.3520524,0.145918162,8.175641777,11
834.9354782,0.147222167,7.564694008,11
1034.603412,0.156202492,7.958914753,11
1121.410614,0.168039678,6.705437661,11
897.1076958,0.145321783,11.28060098,11
1303.658608,0.168471787,7.363775077,11
1418.646502,0.187411274,4.65631214,11
1501.325128,0.188837803,4.118873319,11
1215.430613,0.172481905,5.053644458,11
1254.51782,0.165573568,6.610729537,11
1645.779971,0.21050565,2.542647994,9
1464.587138,0.214526574,2.077610138,9
1458.386769,0.200168229,2.863908145,9
1344.580544,0.172006563,5.558860406,11
1161.753185,0.172910466,4.280280058,11
1342.670813,0.179269244,5.429981771,11
1416.297375,0.202883488,2.162370581,9
1025.570366,0.156572178,6.706342298,11
1336.675529,0.177950554,4.838127775,11
674.3414994,0.168639566,9.625126971,1
753.6874407,0.150248847,11.8202579,1
796.7862064,0.150292595,13.06559353,1
731.6547962,0.144183476,13.44871351,1
845.7790669,0.155770664,12.20935356,1
729.3054444,0.141731694,15.15722334,1
815.9802025,0.150185622,13.20899405,1
1535.827775,0.189906377,1.409847578,9
833.0401365,0.147205805,15.10051074,1
852.8503049,0.156891879,11.47102264,1
855.2773373,0.156669992,11.67028954,1
746.8043237,0.14760526,12.68936795,1
1175.58109,0.195963845,1.467296292,9
1014.491467,0.2259952,0.352540052,9
1467.628768,0.211031077,0.880099678,9
1386.983889,0.198158437,0.955124772,9
1456.152564,0.20398856,1.194707867,9
1857.778587,0.213179094,1.023515186,9
1438.636775,0.204830197,0.959203153,9
1802.834327,0.196902538,1.967403758,9
719.9660764,0.194567867,0.77876187,9
1831.81609,0.20622663,1.202334179,9
971.8273591,0.231864986,0.528816958,9
1178.682919,0.150530917,5.910475559,9
1065.588189,0.177620682,2.01928518,9
1559.961403,0.20960338,0.889547437,9
1511.269288,0.179432804,1.982419285,9
990.2801534,0.204072679,2.014349029,9
810.9767448,0.215481414,0.586276074,9
1509.206242,0.198702185,0.87701616,9
1595.579007,0.19448077,1.608358545,9
1365.936941,0.189852163,1.115825459,9
1296.901949,0.164833883,12.10084124,9
1713.142373,0.185886921,1.029276656,9
1073.823188,0.206092993,0.950033043,9
653.4104896,0.220193686,2.145978672,9
1864.925817,0.200899141,1.026868004,9
2237.278031,0.237457152,-0.051338186,9
1032.190093,0.146965798,4.66288602,9
1671.310836,0.203626222,1.331219123,9
1597.13683,0.181915627,1.698628559,9
1600.511413,0.194971086,1.336498694,9
1481.94721,0.190006993,0.915890252,9
1488.430624,0.173350226,1.650477758,9
1111.038064,0.205934078,1.155659438,9
1271.595585,0.174678943,1.515090419,9
1363.20744,0.165992475,2.169566178,9
1376.974379,0.172137107,1.797247052,9
1331.116869,0.169740202,11.39189583,9
1078.249256,0.197358369,4.438134084,9
1386.316703,0.191976563,1.029146135,9
956.7777845,0.141704288,15.52444658,9
1013.325952,0.212533562,1.015904298,9
1111.296989,0.193770152,4.649022213,9
1469.197635,0.187424664,1.572919216,9
1458.548239,0.202554059,0.96257084,9
1277.816865,0.168213397,1.797540647,9
1353.113608,0.176449076,7.047337497,9
929.8228277,0.148178465,13.4998817,9
1086.330635,0.146905447,13.40197389,9
1213.318548,0.162194333,12.71468604,9
1284.998724,0.162434817,13.41675456,9
1070.484115,0.147389322,10.54075326,9
1390.349902,0.175036492,1.515730591,9
1430.21204,0.212539229,0.886954535,9
1562.729862,0.212203031,0.889461698,9
1597.116306,0.199947702,1.2168978,9
1720.739405,0.200114207,0.961851662,9
1101.685394,0.192615352,5.256068183,9
1495.001153,0.194758457,1.493988518,9
1323.162417,0.190030245,0.892172248,9
1388.333008,0.184767223,1.260104199,9
1033.850809,0.145229393,11.29783835,9
1457.255214,0.182533305,1.289966846,9
1363.137818,0.190026319,1.237761735,9
1436.888067,0.202214218,0.939267628,9
1342.968707,0.190639443,1.11655422,9
1379.602033,0.189405728,1.122095921,9
799.133626,0.195755107,1.118914582,9
1524.048874,0.186792928,1.640426094,9
1377.0078,0.189780159,1.179558785,9
1588.527242,0.193600693,1.424912957,9
951.3102051,0.139936277,10.15085988,9
1488.314495,0.217431753,0.719791675,9
930.1690515,0.143921925,7.98336243,9
874.3197807,0.141446919,4.157255458,9
1532.826136,0.209893644,0.760174798,9
1534.412785,0.190235067,1.645343099,9
1744.879648,0.204821329,1.286736672,9
801.9918175,0.154250968,2.000936566,9
1537.167079,0.21782228,0.763643104,9
980.8286646,0.14858847,7.661581708,9
1140.030261,0.202753701,1.260415314,9
1399.764149,0.211450976,0.727493223,9
1507.582618,0.212637664,0.763820663,9
1086.883333,0.151696153,8.450668597,9
844.6964546,0.144046903,6.299582306,9
1569.170669,0.187801189,1.663862415,9
896.1917203,0.160571907,1.901219432,9
1551.516756,0.208675401,1.026365918,9
1546.508744,0.220357965,0.795615177,9
1320.009527,0.193305787,0.999263961,9
1361.423433,0.189867042,1.205280771,9
902.6675666,0.137454674,5.412267296,9
1002.132543,0.145388186,3.155065584,9
1068.075379,0.153283265,8.031602888,9
1440.073396,0.205017637,0.893724873,9
1408.507132,0.219290493,0.681413338,9
1423.331968,0.200194691,0.780648169,9
1527.921895,0.201821858,0.91115218,9
864.7822777,0.147368209,2.567452083,9
829.0982307,0.143382535,5.649927275,9
1456.528357,0.215856197,0.62853934,9
1141.642754,0.153080009,7.947657252,9
1386.726372,0.214249584,0.673964606,9
855.9317342,0.138754453,3.347352602,9
1296.821012,0.212555167,0.680341133,9
797.0534122,0.194757989,2.812397973,9
1432.961205,0.18599963,1.38140069,9
1147.509621,0.176069445,1.23735911,9
1401.855692,0.187920718,1.230481779,9
1117.926237,0.151158998,9.956980971,9
1080.125103,0.146154557,8.755364034,9
1417.266294,0.202543317,1.30123074,9
907.6508127,0.136616955,13.67477321,9
838.2181537,0.192670353,2.824117194,9
896.2537687,0.140859457,11.85884788,9
1322.217128,0.181761133,1.308645166,9
989.7158051,0.136495608,7.799123817,9
987.6947017,0.144721214,6.289805798,9
902.6570169,0.139309507,4.765370198,9
768.7959814,0.143979455,4.524260601,9
1322.450411,0.177677115,1.204870299,9
994.9688543,0.193282664,1.583598773,9
1423.551329,0.188595675,1.255519645,9
1226.449774,0.159992597,12.28639645,9
1205.315316,0.197411914,2.628461576,9
1378.278016,0.204483851,0.791893363,9
1610.800029,0.186157585,1.707310415,9
1068.757984,0.191283613,5.097933328,9
1064.517259,0.214325342,1.018303068,9
916.9978123,0.138934315,5.23785311,1
1453.551209,0.205732587,1.032913646,9
871.6959173,0.15675183,12.39754035,1
980.5154814,0.159648499,13.46174225,1
881.6822901,0.151678734,14.65250067,1
848.3116792,0.15139303,13.79269074,1
786.3550869,0.148520186,13.18061869,1
871.1561754,0.155421857,13.64357664,1
957.7104345,0.166100987,11.2080682,1
764.1920478,0.147870396,13.21846731,1
893.6198213,0.15492727,14.34189219,1
815.8936493,0.151432786,12.21790686,1
757.1698893,0.141696642,14.71276779,1
741.9140556,0.14419947,14.73838773,1
852.8084387,0.155279872,12.46742778,1
878.5209129,0.160041113,11.48575867,1
778.9988751,0.152475359,11.79283392,1
834.0573398,0.152878461,12.72963226,1
780.6946485,0.148542371,12.68957499,1
844.4697607,0.148579315,14.29203072,1
739.637304,0.144070699,14.30470938,1
782.619153,0.150980164,11.86561528,1
731.2442197,0.145624121,12.8790474,1
794.1788368,0.155258966,11.70414303,1
785.7225719,0.147136443,13.62757023,1
854.8553713,0.149304941,13.27573124,1
967.9696438,0.153442714,3.891078077,1
1467.430303,0.219916041,0.612188163,9
832.8332585,0.150251396,12.53287291,1
849.9094118,0.148597597,13.89206568,1
835.8254567,0.148112921,14.81055196,1
896.5444977,0.158626369,11.2836886,1
861.0037658,0.152048595,13.59726224,1
819.3485893,0.150608715,13.42909438,1
804.2192775,0.153553915,12.11342134,1
875.8329462,0.152415731,14.62999019,1
897.1126849,0.154041165,15.25198108,1
825.3084666,0.148175045,13.76424266,1
804.2687081,0.142671934,18.59251621,1
940.7782073,0.143863192,7.567638285,9
831.663096,0.143058965,19.13140024,1
901.6112292,0.151602306,4.124841352,1
820.7817261,0.144276844,18.06234767,1
909.6224085,0.150586791,16.31088575,1
847.0359888,0.147629021,15.31035899,1
853.8848776,0.147900464,15.92396835,1
873.7399629,0.150586715,16.14205549,1
848.1838826,0.150196406,16.20052859,1
774.1545119,0.144373083,14.08847018,1
872.8188262,0.154206938,13.3405391,1
854.8580365,0.152514263,13.59755184,1
838.1359464,0.152593606,13.58902859,1
1279.559979,0.230718641,-0.014219019,9
1230.430543,0.17803201,3.82576489,9
781.7327263,0.142686779,18.17011373,1
731.3238276,0.140993466,15.06973788,1
834.9855316,0.148242263,16.8819349,1
751.6220977,0.142885827,14.7884875,1
795.0897484,0.145385574,15.57256769,1
755.3084345,0.144328946,14.64142473,1
810.5139736,0.148005613,13.31505852,1
797.3896015,0.142789528,18.64014388,1
860.0658596,0.149722559,16.3415161,1
741.0751096,0.147726375,13.76652187,1
745.288486,0.148782604,12.98029926,1
868.2333653,0.155464542,14.85184074,1
837.273735,0.154495653,13.5603748,1
703.1595131,0.13809721,14.74652635,1
813.3978069,0.148744574,13.07679514,1
841.7678505,0.152408097,12.85249983,1
674.0141955,0.132398085,21.03236218,1
868.1910245,0.15201141,15.0515496,1
750.1701089,0.146755524,12.50196795,1
878.2468174,0.157635804,12.04787507,1
707.0524623,0.141754085,12.56153354,1
717.8406198,0.136831873,15.29152449,1
848.2226386,0.149159309,13.6310196,1
861.7628647,0.154059606,3.70481826,1
1486.42355,0.211958388,1.291118131,9
819.032567,0.147844943,16.70667092,1
1029.050601,0.157161232,11.90844388,9
767.6385407,0.142297167,16.85699316,1
680.2096291,0.134362885,15.94023462,1
841.6248803,0.148037982,15.65991043,1
751.7649986,0.14607804,14.92014252,1
903.691968,0.158192105,12.97642315,1
790.2418684,0.145429335,14.82677812,1
775.7040838,0.144887041,15.10875502,1
802.0650214,0.145267065,15.98210153,1
768.2480669,0.140881532,16.64259768,1
1144.078311,0.158395663,8.190525414,9
852.8291801,0.149381214,14.71089428,1
778.6540227,0.148528921,15.08903689,1
922.8695598,0.156527223,14.59548504,1
896.4988734,0.151657718,15.50607518,1
1347.817171,0.177224345,6.93842533,1
1129.537723,0.157394392,10.25055222,9
827.1057455,0.145375047,15.97909166,1
840.14614,0.152329652,12.26886164,1
896.0016793,0.155106715,14.09048678,1
874.8460905,0.151854883,16.47002836,1
884.7396913,0.155355376,14.43668724,1
1061.000658,0.145226777,10.37422296,9
840.6964143,0.142730185,19.29842726,1
871.205003,0.151122575,14.02340501,1
1203.819416,0.151421868,15.10338377,9
937.4185742,0.156165807,15.36525003,1
889.1907274,0.156305663,12.88859272,1
906.751676,0.15203845,17.59633018,1
922.4561248,0.156699866,14.65200036,1
799.2861315,0.142954307,16.67915704,1
1068.818084,0.142990173,13.63159287,9
860.7770746,0.152231579,15.30499188,1
851.0758208,0.147982897,16.28971293,1
936.1485176,0.158396053,13.28594399,1
1343.211395,0.186024871,1.229375122,9
870.705224,0.149154202,14.24985801,1
658.2906279,0.132082369,18.33810086,1
831.2966019,0.144635608,16.41196567,1
876.4318636,0.152471108,13.5336867,1
860.6874038,0.151981203,13.47201138,1
799.2300264,0.152377689,12.08637944,1
965.2117076,0.15940313,13.75257575,1
796.5959564,0.143441461,17.79378563,1
767.8716133,0.13986349,17.28123072,1
795.3907848,0.144421809,15.29177959,1
811.9762937,0.144573542,14.95280184,1
904.0647796,0.149569049,17.69484445,1
779.8148983,0.146175143,14.72663905,1
949.0243696,0.1574531,11.20520753,1
819.3299592,0.148199013,15.59594627,1
755.3787714,0.139022255,15.46831649,1
760.6977288,0.1371586,21.08078648,1
860.7866693,0.148277718,16.23658332,1
756.4815105,0.145253883,14.88739648,1
913.2780732,0.151810174,16.98704695,1
986.000034,0.140440601,5.360097146,1
1463.608165,0.196527531,1.058097621,9
815.7405774,0.143296959,18.16300571,1
760.5847655,0.136473552,20.16589415,1
742.1385121,0.138575749,16.42867125,1
871.1408664,0.150120628,15.86550639,1
949.8104354,0.138929408,5.514462905,1
1419.183459,0.207106972,0.886879927,9
913.3597314,0.154245784,14.49448335,1
870.349916,0.149030317,16.02437644,1
819.1020376,0.146789339,13.83266245,1
852.2241581,0.149362233,14.60558879,1
953.3583071,0.149684753,4.367724234,1
1394.75884,0.188858594,1.462768965,9
868.5839226,0.152029184,14.12210109,1
946.7891238,0.15884238,12.93173981,1
836.7391898,0.151747388,12.93213517,1
811.8651501,0.147563696,13.54155188,1
832.7215476,0.147387363,14.64252788,1
818.1932599,0.149551308,13.97142754,1
804.9497154,0.148173864,13.10132738,1
790.8559783,0.149280888,11.84585983,1
797.5458042,0.144715073,14.56556515,1
846.9676348,0.154239125,11.40488227,1
792.2582879,0.142643895,14.69357998,1
719.6785752,0.139542935,13.01528034,1
663.7640312,0.134939735,15.30876995,1
868.5196838,0.148369079,16.15429254,1
874.1191241,0.152945728,14.01622947,1
898.2684911,0.156951207,13.04823419,1
923.3935096,0.156109058,13.52451957,1
781.5074006,0.141830857,18.32302803,1
814.0794318,0.145891449,16.00879859,1
962.4877101,0.150319584,3.983739779,1
1503.610265,0.181796317,1.697194109,9
760.5457912,0.141223372,17.45168511,1
750.6605326,0.14387927,13.96993247,1
786.9596816,0.146915932,16.21689684,1
902.5681503,0.153414352,15.03990906,1
1044.1038,0.153993394,3.731116834,1
1592.235459,0.198561228,1.463015888,9
903.2734866,0.152856736,13.85612424,1
744.0959725,0.143356599,15.16587324,1
822.6770303,0.149298513,16.39143434,1
901.0040448,0.158190835,13.02149181,1
869.5352498,0.152724579,15.15906534,1
767.8556295,0.144250645,16.53077075,1
911.7801821,0.152797816,14.52852448,1
824.2014327,0.14873232,14.80157894,1
887.8233863,0.153358586,14.90526828,1
774.5610236,0.142994339,17.18018975,1
798.9710413,0.144592576,16.12599498,1
728.3261422,0.140467953,16.2887171,1
956.2013949,0.157902244,14.29277238,1
797.846686,0.146806159,14.14394239,1
984.6873578,0.153199236,4.025776401,1
1586.199355,0.182098971,1.71745304,9
910.9435944,0.153913095,14.56896964,1
968.1470368,0.161194093,13.87723555,1
872.9461874,0.134765639,5.453015298,1
1525.373984,0.211547639,0.945589513,9
916.76007,0.15529317,14.13321523,1
750.7417685,0.142693773,15.91168791,1
960.9195981,0.146739209,4.664291483,1
1529.404089,0.206899794,0.973236587,9
798.4062672,0.147114823,14.09010309,1
857.9282924,0.155224628,12.00979024,1
1007.143275,0.141943834,4.161178852,9
765.4468402,0.141523364,15.55706506,1
811.6644218,0.146710549,14.35838709,1
844.6316634,0.146759922,15.67628078,1
842.7238723,0.152121204,12.74027865,1
808.0556637,0.149341758,12.85378535,1
949.0805582,0.148659929,4.230068935,1
1427.977736,0.203532864,0.949962239,9
899.3315025,0.15702209,11.7834881,1
900.2063107,0.15225026,14.03271809,1
732.6568011,0.141249801,14.92124888,1
792.4312354,0.145474873,13.93243204,1
948.9884179,0.160159489,13.12567667,1
755.078128,0.150721046,12.03054971,1
807.0909131,0.153459648,11.58078676,1
771.9398545,0.146859025,14.11811876,1
742.4275032,0.145091873,13.74668619,1
730.6827535,0.143753441,12.68672044,1
847.0996379,0.15004003,13.7822627,1
738.994025,0.145720218,12.11593154,1
727.9329442,0.146623317,12.23926849,1
756.8644052,0.148773681,11.56838895,1
894.8546393,0.150198424,15.99850152,1
755.7048548,0.144526097,14.25705273,1
759.8321257,0.143582345,14.84725785,1
742.8271481,0.143368635,15.61624365,1
799.5124552,0.152049356,12.36717332,1
913.6062955,0.146096647,4.10400641,1
1434.533222,0.20611991,0.923183344,9
733.6407997,0.14521551,14.35848038,1
694.8037564,0.13835991,16.18919604,1
683.5939249,0.138104738,15.44386086,1
729.1334988,0.14660444,13.17003947,1
864.4883046,0.14762175,15.32291582,1
781.1650019,0.147088226,12.94054541,1
812.825692,0.153593856,12.32641278,1
750.8337254,0.150698926,11.9163593,1
893.9371448,0.153716978,14.76624279,1
708.6843886,0.14140756,14.21362467,1
840.3662382,0.15167349,13.57796558,1
719.3542878,0.142736277,13.63918869,1
771.9658574,0.149120342,12.78475489,1
998.3669405,0.14309582,14.72139489,9
776.9614928,0.143796995,16.09456904,1
902.1767081,0.157651076,13.28970994,1
715.1105568,0.144096731,13.89855027,1
832.2109455,0.145470424,15.34251077,1
764.9029226,0.151418067,11.87613167,1
743.6099347,0.145767855,13.72052026,1
932.8962246,0.154214507,8.495167865,1
816.3170721,0.140150362,17.61614174,1
719.9739598,0.14681735,12.72050331,1
758.5266693,0.14460876,14.89374259,1
792.4028396,0.149868505,13.66723153,1
815.5390745,0.148443091,14.10716143,1
824.4929155,0.152719255,13.37358884,1
749.3341162,0.147349389,11.93283287,1
828.8308641,0.15258061,10.88919581,1
774.2696528,0.153114325,11.40472281,1
795.7055883,0.147990148,14.14282185,1
838.4216519,0.152225179,14.23759842,1
962.8885873,0.133399631,9.26063446,9
880.5235842,0.151909019,14.72612224,1
975.6870523,0.155659329,3.478220073,1
798.7058022,0.140849665,18.54660263,1
779.8767964,0.143448065,15.2445262,1
778.6221595,0.146493949,13.51353558,1
871.4557665,0.150232012,15.53057376,1
886.7941994,0.152116103,15.31125081,1
1019.073076,0.140022945,10.59300974,9
790.161432,0.143931668,14.84879983,1
769.7620398,0.141505344,16.91019282,1
798.2377204,0.143357172,16.31418327,1
792.0554011,0.142982903,16.67290621,1
849.6527316,0.146903469,15.52175168,1
771.8696692,0.144637217,16.34925179,1
848.5555028,0.15056298,14.4855765,1
801.8120006,0.149869553,13.6580496,1
833.7508323,0.149321593,13.95658909,1
825.1527416,0.144197618,17.16521393,1
844.6102791,0.150052052,14.19464522,1
744.9012357,0.1453208,14.24218435,1
735.138768,0.143887059,14.36713609,1
871.8402475,0.156323931,13.04327397,1
1342.066777,0.172531719,1.629301408,9
840.4286573,0.147891399,15.25038777,1
884.3736094,0.153935304,14.22445873,1
1113.187643,0.196094723,1.472475582,9
927.3354502,0.161604968,12.27915807,1
894.8868165,0.15801998,13.61411565,1
796.961035,0.150072975,12.56370597,1
826.9907838,0.147264072,15.35455646,1
751.7826372,0.141399894,16.45104831,1
872.058811,0.153610848,13.42522653,1
659.487242,0.135283961,9.784124904,1
926.7278693,0.2264952,0.541999514,9
784.2503285,0.14732424,14.5334845,1
786.0958523,0.145618668,13.67906617,1
1006.628746,0.150755607,3.545951191,1
1789.730693,0.199639285,1.451812488,9
743.6571194,0.137846917,16.71235323,1
726.3420461,0.139499195,14.86524187,1
788.4063973,0.147323601,13.37788279,1
878.3375525,0.152087048,14.63484127,1
928.8200586,0.156622648,13.53686744,1
789.7743661,0.148509097,13.3346248,1
830.8882599,0.148398806,13.91365917,1
820.7699124,0.145966003,14.34586739,1
773.714301,0.188502365,3.663011842,9
790.1301054,0.151681678,12.28758668,1
858.474893,0.157832613,11.8101811,1
772.6957939,0.149047481,13.62308556,1
852.1852514,0.152384707,12.63382052,1
896.3607966,0.151698635,15.27740023,1
782.7524188,0.144519367,15.06395416,1
904.4893201,0.146508093,4.518315034,1
1331.990714,0.194683212,1.004195653,9
1013.972316,0.164423495,12.80893117,1
845.3985311,0.152650312,13.01294437,1
778.1699886,0.147608706,13.23027537,1
720.813507,0.140464267,15.15250946,1
879.8308322,0.150345914,15.77732093,1
775.2193994,0.145990181,13.83543669,1
796.7946174,0.150300997,12.47052416,1
874.3856335,0.154383626,12.9090459,1
1380.145888,0.195679338,1.045900212,9
756.4053296,0.139864768,16.83943759,1
706.3585798,0.137823801,16.42011992,1
883.1206112,0.154649083,13.52873245,1
893.4492415,0.156016905,12.95390494,1
792.6510633,0.14455019,15.85832984,1
761.3740134,0.143415156,14.78108956,1
773.625628,0.144117337,14.41615976,1
840.5821749,0.146263133,16.83174735,1
793.6165661,0.141900412,16.79449997,1
763.354012,0.140371998,16.22271596,1
822.6730671,0.150128172,13.61962484,1
850.3375713,0.15274992,13.77031881,1
790.371594,0.152386739,11.87871698,1
954.6799274,0.157227197,13.57707757,1
870.9167352,0.147986267,16.14314331,1
802.0878534,0.145442663,13.02472712,1
941.0034129,0.156166924,14.19003277,1
859.7927938,0.149109425,14.46946677,1
898.9962246,0.157708,11.64664975,1
811.1417895,0.153193025,12.19223824,1
936.5669612,0.162321015,12.24480116,1
759.9625536,0.146172677,12.89634551,1
788.9877304,0.145419967,14.95712532,1
727.1755606,0.141936048,15.02306996,1
738.4385439,0.145577682,12.56085309,1
906.1429369,0.157701094,12.98468624,1
851.0393725,0.150471431,14.58476242,1
914.923682,0.16193363,11.87755655,1
761.9511056,0.145244037,13.56399117,1
775.2627541,0.140335573,16.32062839,1
749.7215009,0.142525694,15.18489147,1
807.2910007,0.149000227,13.38343975,1
808.9233083,0.149826846,13.21777644,1
816.5467194,0.146967472,15.24014338,1
762.9646728,0.142954629,15.4034083,1
818.217223,0.151607726,11.70169027,1
765.6514275,0.143793284,14.01527269,1
730.9442468,0.14259643,14.66838089,1
757.2617227,0.148197355,12.92872467,1
865.7695859,0.141197547,19.91532613,11
885.2189544,0.156804458,11.7604087,1
864.916109,0.147170112,16.33742004,1
780.9991639,0.144837902,16.35042011,1
806.3097168,0.149173927,13.01210134,1
885.2362368,0.154943624,14.59549598,1
730.0341735,0.148639694,11.61233634,1
820.6071478,0.143686316,17.11473166,1
797.1320119,0.147378884,14.77108063,1
938.7676267,0.159073827,13.51501846,1
746.0473688,0.140805878,15.81947455,1
758.5901558,0.143150568,14.60741031,1
759.4793027,0.153399819,10.62687745,1
840.8284633,0.155784114,12.80641662,1
804.6360459,0.148258883,14.31538864,1
741.0249826,0.143924291,14.13734866,1
698.4230478,0.141286571,14.69270309,1
809.1763314,0.152908715,12.90370776,1
810.8117877,0.153538482,12.80976651,1
829.5079086,0.146295603,17.15736784,1
771.5635494,0.14718249,14.09146291,1
1005.795639,0.157679722,14.16915979,1
698.6790212,0.137402396,16.87489813,1
844.9750354,0.151037163,14.02159774,1
792.6817287,0.142074682,15.81254789,1
661.1467452,0.131029137,17.8778123,1
786.1677238,0.146064851,16.24155271,1
843.3767698,0.150629294,14.9794632,1
816.5834762,0.146224617,15.09101131,1
867.1680946,0.153801828,13.63871449,1
824.4317345,0.14746165,14.30573865,1
849.1536171,0.149683316,13.99245259,1
856.5276187,0.153627155,12.5087933,1
813.2217269,0.146541309,13.26231106,1
782.6153991,0.153936281,10.25070972,1
852.7009144,0.147432625,17.59765343,1
753.8655056,0.14489488,14.43157948,1
879.0032605,0.153533627,13.96251489,1
790.8106219,0.143465469,14.50900063,1
1606.440791,0.200490826,5.006512108,9
816.7198528,0.150240413,13.32031745,1
725.9136284,0.139035865,14.44701291,1
765.3778066,0.142284456,14.48155337,1
972.2461564,0.153126963,4.157484415,1
1482.580989,0.200074788,1.329225894,9
811.4924237,0.146495982,13.45295279,1
769.6915892,0.142552598,18.00908678,1
841.4408037,0.148935769,15.35179728,1
929.5375633,0.158100805,10.16237435,1
1193.326796,0.157080468,8.123041833,9
846.8477012,0.147775169,17.4034685,1
797.4277195,0.144755173,15.49489349,1
791.9067126,0.143524375,15.90569435,1
763.2750302,0.143971658,14.41158896,1
973.4773333,0.147848777,7.760970886,9
863.5850751,0.154224233,14.70762869,1
908.2460714,0.154584217,14.97761777,1
814.4275073,0.143744173,16.03921189,1
778.4174814,0.142202468,15.77794386,1
1061.75686,0.143560812,13.6091444,9
749.9539771,0.141171654,17.31744574,1
861.3362995,0.150065377,15.94974673,1
869.611089,0.152899989,13.44188835,1
770.7277526,0.147441016,14.43868931,1
826.4568207,0.146593644,17.87164249,1
1305.110598,0.175172065,7.265780608,1
1077.754101,0.158976142,11.03403896,9
923.4802756,0.156050446,14.98184807,1
924.0858748,0.154567461,15.3908561,1
843.2480812,0.149267398,14.3849488,1
933.9151494,0.152654103,16.82669817,1
1456.305129,0.173537434,13.33963422,9
881.7559976,0.146298754,18.83175872,1
780.2764369,0.138293661,17.70904806,1
1110.876999,0.156370706,3.825849738,1
1633.32226,0.191782181,1.29967735,9
984.5230119,0.169881396,10.93168154,1
893.8675826,0.147607377,16.96170014,1
859.2226051,0.147695265,15.60604483,1
786.8131722,0.144790673,15.45507098,1
877.6116271,0.150131422,15.60555986,1
871.7906234,0.151965643,15.14231964,1
835.2814109,0.149410932,13.91145577,1
897.7203391,0.148238254,19.04320298,1
925.8048817,0.156307232,14.20782011,1
800.7406926,0.152551442,13.38738074,1
821.0023289,0.148675287,14.5533705,1
741.0795896,0.144449105,14.87568117,1
759.3892865,0.143462889,15.04542606,1
843.451495,0.153073372,14.04432583,1
883.5861355,0.147672464,17.53170984,1
748.8191768,0.141204561,15.55763929,1
760.7399629,0.142899418,15.89924419,1
919.7132573,0.161346026,11.99265055,1
798.2384965,0.148292787,13.63548485,1
705.2105994,0.132820789,22.17107601,1
781.7071562,0.139010806,18.39209288,1
764.7844632,0.139532339,17.25213469,1
866.1310529,0.152022381,14.22663895,1
838.5189217,0.156632369,11.52741589,1
840.6067264,0.147057283,18.18210914,1
775.3321103,0.142243205,17.03689628,1
851.4898558,0.147028532,17.1177173,1
849.3576764,0.146430357,16.988238,1
830.6828529,0.14365435,17.30974029,1
863.9667277,0.145986822,17.58532373,1
778.1488981,0.141115283,15.97197539,1
843.9476153,0.148117452,14.96314907,1
873.6544536,0.152894178,14.1444095,1
758.1430095,0.143642968,14.67554266,1
809.4084096,0.148392844,14.10882422,1
725.4058217,0.138184412,16.6890073,1
720.7343648,0.143337352,14.96022507,1
766.9394312,0.143087812,14.39188905,1
846.2223747,0.155878432,12.07985394,1
845.3202705,0.152691982,11.74628011,1
1218.634766,0.171149155,7.927328297,1
1013.187876,0.147105334,14.81383198,9
713.3642057,0.137536035,16.96338189,1
1005.020547,0.156495565,16.34323151,1
896.1820814,0.150701358,16.27201668,1
874.3540631,0.151370073,15.32325272,1
866.0180135,0.151968216,14.47635045,1
986.753309,0.149001152,4.41786151,1
776.6069787,0.141105663,17.66439822,1
701.6557547,0.139158752,15.96863642,1
821.0962106,0.147955387,14.0924687,1
827.6313075,0.15034217,13.20583784,1
1300.151193,0.161037958,8.31093723,9
904.8031134,0.152701687,15.95422685,1
804.4075439,0.14138645,18.7920178,1
857.5945902,0.146153875,16.79011971,1
789.9714631,0.146591269,15.14988972,1
773.4258691,0.15246469,11.9455587,1
1025.655263,0.16209605,12.85476532,1
1174.541094,0.148129819,11.83690523,9
777.9301787,0.138413389,20.52145729,1
758.1542282,0.136304885,19.4035559,1
826.6723119,0.14422911,17.8909234,1
836.8237359,0.14586768,17.1091576,1
980.5973538,0.163676351,12.02685197,1
854.7122201,0.153450471,14.4750093,1
811.2750701,0.148957785,13.73390576,1
778.6883249,0.14809935,11.42050868,1
818.0307439,0.169028609,10.43198142,1
1746.099625,0.184497452,4.028623098,9
2210.635984,0.225491902,2.630162094,9
1255.253504,0.158490911,10.54539499,9
1149.406356,0.143188477,8.25263318,9
1323.499365,0.165443403,2.138471127,9
1257.800671,0.161830964,9.186247508,9
2078.834644,0.209579535,2.786662274,9
1207.513616,0.153708881,9.114783357,9
1172.782982,0.150877789,10.77808215,9
1232.377065,0.157380267,8.436150871,9
1280.316169,0.160060768,8.132055623,9
1307.046835,0.17707552,5.622823763,9
1079.401473,0.154000025,6.078473106,9
1208.229078,0.143506274,6.000280358,9
1200.055865,0.156302324,8.457925079,9
1328.70424,0.179304775,4.579511848,9
1791.588924,0.187664168,3.556050298,9
975.8734729,0.142218408,11.57579469,9
1686.001959,0.176141771,3.386089687,9
1049.533841,0.149486856,9.94680477,9
1350.2552,0.187675322,3.955990175,9
2059.632844,0.212049872,4.586004943,9
1191.125903,0.161346245,5.44977292,9
1235.897151,0.1547914,8.693942448,9
1215.300498,0.1560477,9.041114083,9
1302.055059,0.158948348,8.398634786,9
1194.169116,0.151631483,8.76302922,9
1686.492497,0.185837949,3.677373546,9
1196.768405,0.155477295,9.131267852,9
1265.787189,0.1633669,8.43061386,9
1299.66029,0.162671668,8.915096126,9
1952.053046,0.187823766,3.352218526,9
1166.567296,0.163237147,5.830206883,9
1205.190327,0.1521612,7.412805148,9
2008.104127,0.209191821,4.587601979,9
1342.412892,0.189773397,4.402537021,9
1152.676491,0.149205303,9.568884432,9
1310.895959,0.16023462,7.90198017,9
1368.350947,0.191341025,4.442156938,9
1190.251467,0.155201246,9.654962426,9
1215.831607,0.15797473,8.413476777,9
1253.531732,0.161136175,9.083396257,9
1428.489814,0.165549841,5.030425219,9
1203.346885,0.155213502,8.10576573,9
1290.899233,0.15542248,6.007503822,9
1230.294975,0.176983774,5.007131851,9
1199.682721,0.153620584,9.931966009,9
1997.315601,0.223288096,2.62316261,9
1258.975036,0.158348755,8.77694673,9
1148.539156,0.150537101,10.23600513,9
1333.996577,0.163259071,8.682931203,9
1025.462175,0.162621247,5.635313835,9
1240.800735,0.157734407,9.84630228,9
1222.673736,0.15673355,8.097416963,9
1031.099791,0.13860315,9.604244968,9
1289.858605,0.163206127,7.993008464,9
1115.338628,0.156478505,6.24571913,9
1261.99456,0.157415613,8.057194976,9
2023.382362,0.22246598,1.796287901,9
1354.441133,0.15664447,5.428725757,9
1427.421414,0.177472368,5.060821066,9
1361.209384,0.168839688,6.958355933,9
1237.33839,0.159717741,7.453908708,9
1424.602356,0.192511649,4.29682636,9
1295.312785,0.155666545,5.898213741,9
1243.934704,0.158928252,8.306897591,9
1177.357734,0.155056185,9.829178774,9
1361.949,0.167082439,6.982956382,9
1190.680397,0.150280516,6.918649634,9
1175.894689,0.158817476,6.660663294,9
1253.302716,0.163243757,9.055062648,9
1342.903787,0.166404441,6.593165063,9
1320.130021,0.164039415,8.537372242,9
1296.380598,0.163031194,8.321452865,9
1503.096928,0.164231186,4.007826706,9
1211.063993,0.15559105,8.015958298,9
1198.512048,0.147523373,8.262118857,9
1125.230052,0.151140639,10.48335324,9
1269.027291,0.158377773,6.381087797,9
1214.322632,0.15695711,9.461557601,9
2040.815955,0.197693945,3.67924612,9
1268.385331,0.159792817,8.792709049,9
609.3960038,0.161424125,2.996586882,9
695.7409668,0.169475878,1.993609862,9
1091.117722,0.205276417,3.571336838,9
628.2014009,0.154733182,4.084773862,9
585.9741057,0.11156392,16.50905649,9
997.8474428,0.179756723,5.126461472,9
1218.991237,0.214910659,2.068979243,9
995.6683411,0.27505096,-0.865287324,9
876.8857341,0.199829142,2.831934937,9
840.8379007,0.198463868,2.712111709,9
1140.981821,0.170115865,5.164382439,9
910.6436048,0.170976396,0.993326919,9
824.9899562,0.16446993,9.856526402,9
906.3488763,0.156038625,10.88555307,11
941.1565337,0.156604802,13.90206725,11
969.3134112,0.160276439,10.35687349,11
742.4122308,0.148091845,13.07049909,11
855.1631786,0.156855798,10.85899238,11
926.920047,0.158205862,10.75353696,11
864.2519393,0.207248571,2.599546659,9
840.1098478,0.209529602,2.39756921,9
1055.31738,0.135036236,6.792262377,9
964.7392824,0.161608967,10.55582673,5
830.8172339,0.148854384,10.9413904,11
778.8453954,0.15225592,8.479745109,9
878.3690548,0.158918607,8.166012533,9
948.6267435,0.168787316,2.76980714,9
1045.039697,0.184095751,2.342299963,9
981.8432216,0.187985523,1.673766535,9
1034.079426,0.189620018,1.785179517,9
860.1765628,0.16685354,3.55337473,9
946.7107401,0.173711794,3.115119672,9
902.2933095,0.180724472,1.75565511,9
1078.042387,0.188415373,2.142068034,9
902.4392297,0.184083665,1.751337872,9
837.0143844,0.170777696,1.624018652,9
885.0815452,0.197064857,0.888240794,9
929.7094189,0.177363569,2.328470859,9
892.5928543,0.180950746,1.985197007,9
836.7645356,0.183657031,1.683740996,9
841.8292529,0.176267983,2.567727526,9
967.8727105,0.189077954,1.782578395,9
819.2265592,0.187366636,1.189801209,9
891.9574792,0.177461492,2.876704287,9
955.5014441,0.193153322,1.547799397,9
825.350828,0.180797238,2.190013377,9
803.3816315,0.182251601,1.569801528,9
897.0025599,0.199611268,0.824348235,9
786.1619801,0.168979107,2.727647736,9
775.5709425,0.184087737,1.894410305,9
838.4262623,0.178401381,2.413619792,9
786.2531924,0.180570093,1.565357536,9
950.6477016,0.190628074,1.492006015,9
746.4582442,0.164801022,3.473495591,9
771.0779874,0.198532708,0.532890126,9
899.8716645,0.173866106,2.747451991,9
916.8773783,0.175298968,3.089917278,9
665.0060789,0.184040694,1.019722469,9
981.1598702,0.185383383,1.165718055,9
919.7442858,0.178028494,2.422453661,9
958.6452466,0.18925089,1.889010245,9
924.7964659,0.179799396,2.224577036,9
817.1632103,0.185183791,1.140399629,9
913.9485497,0.176756718,2.481048384,9
799.9655359,0.202084051,0.414628051,9
841.5209596,0.173483275,1.914162538,9
811.7119049,0.183374804,1.539016029,9
975.9815768,0.191929892,1.38639028,9
915.3539934,0.172074863,3.423638278,9
767.3482967,0.195196808,0.626136698,9
1102.110042,0.192347564,1.389584235,9
892.6805876,0.186461597,0.881050042,9
783.5242468,0.177655602,0.932216184,9
776.2678373,0.140142347,3.984844042,5
721.0557309,0.237423432,-0.39221791,5
838.4666215,0.144089198,18.56783907,5
925.1106196,0.14586832,17.51969644,5
1153.559371,0.172653137,4.286054516,9
827.3620816,0.138256743,19.19718017,5
874.7775433,0.146234121,18.28028903,5
808.1258169,0.140802789,19.99124487,5
1230.362051,0.158329981,6.404670683,9
1261.640658,0.158147542,7.229336868,9
1443.244665,0.168090808,4.685725794,9
1102.557806,0.147443859,7.353214458,9
796.6870453,0.14373621,18.64754513,5
929.79293,0.148865058,18.76793372,5
816.0263448,0.139592779,20.62995402,5
1000.442815,0.159629983,5.702824095,9
948.758201,0.168127219,6.426101959,9
874.5532204,0.168351439,7.664029396,9
921.7276076,0.168197659,8.688889433,9
886.7521437,0.158039983,10.28006313,9
951.3221913,0.157354356,12.67182249,11
990.2508387,0.170600381,7.561633636,9
1177.438426,0.180672125,3.792264158,9
1061.581463,0.174749696,4.15427185,9
995.5059869,0.177844844,4.339980897,9
1076.376928,0.180400983,3.798851156,9
1060.906668,0.17430776,4.576080624,9
993.2487319,0.172926019,4.456032862,9
1126.678304,0.187230086,3.613785203,9
1072.785345,0.174686802,4.266224003,9
1095.150719,0.181741075,3.70637825,9
1069.363337,0.17642265,3.925835754,9
1096.269063,0.182585623,3.584778439,9
1011.452954,0.170307115,4.155734288,9
1053.353226,0.182154275,4.289006549,9
1079.462981,0.175610724,4.063840876,9
1049.879464,0.174240052,4.436399074,9
1073.508664,0.174588276,4.585977902,9
1142.519444,0.182530205,3.97168877,9
1122.197007,0.177434999,4.155224668,9
1143.398576,0.18166695,4.203050278,9
1106.130847,0.178905855,4.002397845,9
1000.577797,0.171964816,4.550142168,9
1161.153691,0.179602221,4.035059878,9
1107.233996,0.178866079,3.981495765,9
1112.115558,0.172930364,4.394512574,9
1177.092674,0.178979173,4.449409868,9
1212.521976,0.178155196,4.026856893,9
1006.63208,0.170525706,5.084300397,9
1124.985717,0.182177941,3.94050458,9
1077.182693,0.178808179,3.593602687,9
1172.896053,0.184297401,3.894994605,9
1173.225662,0.179411167,3.96891681,9
1054.939888,0.16686023,5.846980771,9
1127.326437,0.180156247,1.115689889,9
850.0913064,0.140019211,19.26540984,5
792.2431238,0.136943789,18.012899,5
1082.853679,0.144929219,8.148004415,9
739.9672673,0.135493276,22.50986199,5
959.9849946,0.161931301,10.08124875,9
1051.870131,0.174463639,8.810424042,11
957.0246504,0.163054274,9.71162191,9
1004.595293,0.171484265,8.666439314,9
984.5431686,0.169010065,8.96530007,9
1053.963476,0.172407073,8.675075367,9
994.2301838,0.160060688,12.2562527,9
1138.051611,0.203909277,1.334311103,9
1016.771977,0.170027416,8.746137062,9
1093.093052,0.178383194,7.737455946,9
977.6747512,0.163782647,10.62047648,9
895.3682396,0.170229703,7.377296908,9
978.0494311,0.16839915,5.201892753,9
968.3794527,0.170237456,6.326054858,9
809.0956488,0.143209671,20.121849,5
843.947441,0.185883163,3.50700657,9
880.1872517,0.147655068,16.68726897,5
975.156518,0.130419365,4.301521704,9
870.4188992,0.144468136,2.919190717,9
740.3352002,0.136506839,21.40878499,5
1368.942303,0.204267888,3.946976972,9
1263.334318,0.18076938,5.934974629,9
1277.649988,0.178882127,8.130916626,9
1490.960706,0.206083598,4.640395551,9
1287.180372,0.188416125,6.202735703,9
1227.482192,0.17609033,8.865197924,9
1357.8424,0.21744053,1.426103307,9
1235.552227,0.207626767,4.754978171,9
1439.727619,0.19500011,5.379882439,9
1288.365651,0.18781737,7.181579945,9
1409.31215,0.18788443,7.877106654,9
1327.624639,0.198122166,2.982223478,9
1235.940609,0.19940564,3.173500842,9
1337.543894,0.209761366,2.985072362,9
1349.054862,0.188943906,5.811860037,9
1618.584923,0.197793597,5.14049335,9
764.1664382,0.291571841,-1.157262743,9
1425.501882,0.193109858,5.011587925,9
1486.470602,0.181528908,8.058796602,9
1286.104477,0.18755939,5.663666481,9
1203.557366,0.18265128,5.021772216,9
1327.246881,0.183948559,6.801647876,9
1268.82345,0.184792802,5.595133383,9
1287.118737,0.183182876,6.532239489,9
1355.915759,0.186087498,7.31447336,9
1334.367852,0.179627567,7.159860459,9
1216.851129,0.173943837,7.385148218,9
1206.397297,0.177275176,4.99695234,9
1390.550803,0.183578251,7.455440749,9
1254.526148,0.173932643,8.455461826,9
1340.171298,0.178216459,7.823900417,9
1301.651496,0.18210173,6.694959101,9
1350.395896,0.189819393,5.280468251,9
1364.824981,0.178515995,7.500776981,9
1268.1652,0.190003455,5.405314491,9
1307.799375,0.180470301,6.057838905,9
1270.252827,0.179344568,7.337992816,9
1337.147373,0.183439401,7.056148148,9
1227.68929,0.185149146,5.193739815,9
1325.505085,0.188218023,6.021868253,9
1308.288501,0.184328326,6.431697463,9
1289.234935,0.177755244,7.294608908,9
1228.216645,0.182947807,6.540501522,9
1357.617287,0.193611671,5.482789968,9
1259.115007,0.177819075,6.740293181,9
776.4980716,0.149417639,2.541598844,5
1365.093303,0.198010493,4.078481116,9
613.3118234,0.264724731,-0.244835595,9
1227.352314,0.233550222,-0.01952167,9
1350.673398,0.198803496,6.112122106,9
1351.653293,0.182781281,6.112910182,9
1109.991756,0.235385827,-0.218496421,9
1079.190824,0.207333185,2.423867263,9
1352.198896,0.222189471,4.711877457,9
1270.27279,0.195757106,3.927841916,9
1328.375842,0.185120604,6.155989531,9
1302.568799,0.176410256,6.873825807,9
1289.571281,0.179393965,7.506856736,9
1308.438946,0.185194459,6.73606717,9
1132.151993,0.176000412,5.955502954,9
1192.19861,0.177047359,6.192776715,9
793.392196,0.152066893,3.557997426,5
1330.083313,0.176702752,8.311974293,9
1161.518305,0.177580027,5.536770316,9
1336.448294,0.174170347,7.543803411,9
1130.847793,0.173048925,6.643951332,9
1160.512208,0.173553361,7.08602432,9
1288.611871,0.173283345,7.828619922,9
1343.063887,0.183640818,6.66406664,9
1360.996153,0.190161469,6.13541921,9
1289.340847,0.187035977,5.323827523,9
1324.140166,0.189182692,6.014844532,9
1078.170071,0.163170616,6.992746307,9
1227.201458,0.179418155,6.067888283,9
1171.754422,0.194013396,4.445346995,9
1303.060465,0.176987142,6.873500073,9
1425.26383,0.190681301,6.345514705,9
806.1616308,0.143143223,8.919524527,5
1150.313538,0.173653085,6.690205581,9
1177.600199,0.183974611,5.122063627,9
1466.465861,0.186306338,7.396395798,9
1333.842297,0.19540521,5.255728747,9
1323.121138,0.174309063,8.281400792,9
1170.525394,0.112787191,9.501075169,9
1274.17522,0.183955017,6.259274608,9
555.9104534,0.117232556,8.483728936,2
504.2150811,0.112243032,10.36120639,2
450.6612153,0.105367559,12.03849887,2
555.2884563,0.117062616,8.332468268,2
459.7285724,0.112418567,9.869414585,2
525.2342512,0.112513644,9.842639391,2
488.7719004,0.115274764,8.13166884,2
468.3574357,0.110591488,9.754759205,2
784.2842027,0.118125011,6.921346498,2
639.1619114,0.131945126,3.988231999,5
899.8023839,0.171384225,1.552805238,5
727.4674995,0.116746188,9.203423764,2
635.1723073,0.1281547,4.912402817,5
714.8945808,0.130272106,3.488031988,2
683.6836217,0.128638087,4.1691578,5
998.806832,0.130729312,4.926671206,2
696.0348739,0.137021167,2.173562018,5
772.0590276,0.119849217,5.828580021,2
569.6091718,0.127257997,3.034744457,5
749.966252,0.135200569,2.70477927,2
670.667877,0.144206795,2.01479516,5
848.3337708,0.183901827,3.754241384,5
735.040239,0.13165012,3.554783441,2
736.6817114,0.134805088,4.300212192,5
758.3571477,0.131977327,3.455551025,5
771.4770481,0.132241433,3.505166153,5
760.4863803,0.131554587,3.007387303,5
678.424518,0.121555634,6.288774728,2
711.0281181,0.123961202,5.677659994,2
673.0218997,0.126630642,5.076724292,2
721.0887225,0.121698823,6.098743346,2
779.1012926,0.129273729,5.182813167,2
834.5007289,0.121805265,6.681428882,2
729.9254405,0.12735962,4.91948498,2
732.9768394,0.139564468,2.841675759,2
909.007684,0.123238718,4.631244217,2
670.3914335,0.125600463,6.359556336,2
850.1181776,0.119431822,6.205238892,2
568.0460875,0.113579975,9.837778797,2
689.1045482,0.122540435,5.37179124,2
674.0077448,0.131458509,4.813959215,2
1211.593142,0.204469622,6.337798209,2
627.9043237,0.116000857,7.685148994,2
625.791209,0.120034759,8.858424681,2
869.6213348,0.130067333,5.84614672,2
645.9807279,0.120124734,5.493128579,2
794.0014169,0.116127458,9.478797109,2
924.588348,0.123465685,5.130478542,2
679.6853162,0.122134073,4.881450479,2
719.6561149,0.124997321,5.000882336,2
527.4894621,0.196161963,-0.278755644,2
626.8765009,0.121027053,8.535272588,2
688.8913407,0.125200112,5.522714006,2
732.7708768,0.116297011,10.12240002,2
654.4458911,0.115222485,8.609923112,2
738.8511908,0.117803359,10.08523424,2
625.8372765,0.117101463,9.226625622,2
775.3674628,0.118551608,9.057958215,2
658.2282903,0.120794026,7.903784488,2
660.7038833,0.119780194,7.037455415,2
622.1999161,0.113630927,9.135975609,2
913.562738,0.128008758,5.189658618,2
737.2994135,0.110571743,7.369834444,2
763.1670401,0.128425776,5.480786286,2
896.8805858,0.120205321,6.04907222,2
627.8930491,0.118277411,8.060514247,2
640.3415038,0.121394723,6.866235621,2
747.9897416,0.122886135,4.676776276,2
764.9607085,0.112837277,8.530369522,2
684.3695896,0.10996105,13.80128642,2
691.0425727,0.111780576,10.12319685,2
668.6018185,0.107398963,12.68430133,2
902.8506046,0.125844765,6.867947758,2
720.9653335,0.113228505,12.88407546,2
474.3600614,0.216689611,-0.608364237,2
690.4624925,0.125067187,6.526243344,2
674.0367653,0.125836424,5.830648536,2
473.8133056,0.175782877,0.286168346,2
813.5240709,0.127572527,4.394533732,2
833.8574294,0.144168393,3.470671062,2
1536.045919,0.168486789,2.29236241,2
875.657735,0.125884961,8.061225904,2
546.0663778,0.22999367,-0.964057081,2
673.6187541,0.123161938,7.407403728,2
655.5711923,0.11032023,14.97829556,2
750.3966303,0.111996087,8.651534475,2
534.4548857,0.116479413,15.88239879,2
767.7200995,0.137656753,3.77572091,2
665.7697621,0.118451464,6.609769785,2
931.4253552,0.123563266,5.330893177,2
680.3365058,0.123238382,6.563375194,2
710.720353,0.122577637,6.225431496,2
659.9833829,0.116979121,8.766786355,2
720.375232,0.128635185,4.052647089,2
714.1322052,0.120457694,5.31064998,2
751.4634708,0.130951348,3.872830551,2
964.1806059,0.126386705,4.602456834,2
950.3920494,0.141644422,5.11146682,2
734.729836,0.128604866,4.018048856,2
779.2599607,0.115906918,8.139315574,2
753.0452919,0.121131594,8.685581579,2
626.8859826,0.118798087,6.763709135,2
1134.083336,0.233825042,2.587613417,2
603.2785755,0.11899878,6.931077836,2
744.938834,0.130738256,5.831654676,2
865.0602968,0.120629808,5.992861877,2
754.8530202,0.125587152,4.950558761,2
679.3935661,0.124472525,8.748450924,2
618.587646,0.117960922,6.868257928,2
785.8523365,0.134230667,4.977791494,2
625.7620573,0.115677249,6.086142676,2
859.7906474,0.119280025,6.399591085,2
735.5788418,0.129642278,3.813516503,2
360.4739202,0.194787891,-0.23045377,2
675.4998989,0.126557735,6.59172191,2
845.5357658,0.122617738,5.654975467,2
911.5036799,0.128532179,5.054601711,2
683.9109526,0.121776781,8.580345475,2
613.7766688,0.119011436,6.154308251,2
662.4417398,0.123022193,6.016064021,2
823.5852658,0.117112796,6.273693172,2
721.2588758,0.124783542,5.994458222,2
908.8105115,0.120614954,6.004915014,2
735.3259244,0.113984544,10.49575085,2
689.7250445,0.11173233,10.62437846,2
781.0347252,0.13361673,4.775174107,2
1171.014549,0.153737407,2.123902163,2
356.2020058,0.16661725,0.10589141,2
627.763892,0.117480903,10.09848243,2
641.521023,0.125216918,7.368797474,2
428.6048868,0.121582744,5.37706945,2
610.4185513,0.117132509,11.39333364,2
745.1705626,0.116121,9.683114508,2
639.0258481,0.120471472,6.380692305,2
545.4872867,0.171022457,-0.025876966,2
643.7520904,0.122054691,6.909623783,2
664.6280205,0.121465907,8.667041295,2
760.3381424,0.116003937,10.17896893,2
686.536461,0.132164263,6.373383226,2
742.4562582,0.119473743,11.24344609,2
732.9133276,0.117166483,11.66522033,2
1225.980025,0.199900543,5.783262626,2
740.2493932,0.132907727,4.850173974,2
760.5182321,0.118439544,10.16402529,2
760.6674877,0.119128167,9.559518093,2
667.2189633,0.122712957,7.552977099,2
678.4549771,0.12219667,9.965295043,2
678.0338298,0.12962992,6.605807322,2
640.1858931,0.126012319,7.469543217,2
753.7803748,0.117086425,11.27670534,2
731.5669477,0.112286475,8.238722558,2
710.2035671,0.112818945,13.96100322,2
659.6698363,0.106271424,13.08093125,2
681.2679705,0.126755467,6.638845021,2
608.2438968,0.115127089,12.22389991,2
592.5307643,0.222041758,-0.811134085,2
772.3655328,0.124408405,10.07976518,2
629.8665212,0.121921681,9.601120721,2
653.6849654,0.119035429,10.36445442,2
697.4867053,0.125307879,7.693446039,2
647.3831908,0.121970856,10.34903309,2
662.2724349,0.122550869,8.637972883,2
794.6035377,0.119458075,8.766364716,2
746.9227288,0.115585731,14.39890402,2
718.2113194,0.113241949,11.83446837,2
378.8017421,0.156667541,0.188860914,2
650.0549168,0.122023628,9.617044792,2
599.5486441,0.123911559,7.621549828,2
640.499892,0.128826512,7.360823581,2
664.6348171,0.131319346,5.643129926,2
777.6029817,0.117458147,8.006065876,2
779.4977329,0.122844037,9.900693541,2
651.4139496,0.120871313,8.841522758,2
674.5724444,0.127185633,7.085661129,2
750.7427442,0.117430463,11.59731057,2
782.9422935,0.140608005,4.042387449,2
864.1246179,0.12271974,5.992923792,2
781.7540561,0.119165577,9.627397815,2
717.6113049,0.130752697,6.188174133,2
333.8979439,0.146669017,3.16926448,2
658.0381781,0.126546326,8.879123996,2
791.0191348,0.120366332,9.902835499,2
798.4709069,0.123165839,8.470264617,2
671.9622367,0.129356102,6.985482552,2
740.0623475,0.126013923,8.505956274,2
707.8477244,0.129904267,6.793472246,2
604.7706413,0.119916823,7.722476564,2
624.0547162,0.115838174,8.67022606,2
758.7688963,0.117090219,9.410965818,2
672.0850577,0.124333929,8.120210171,2
599.0998381,0.127606034,5.847162705,2
619.0812391,0.122991073,8.612119069,2
701.1998206,0.130255925,6.383511203,2
657.9321486,0.121057341,9.188936519,2
619.9532243,0.124072318,7.309619383,2
665.7098824,0.129692169,5.090089237,2
697.7154113,0.129922374,6.623125919,2
658.9499417,0.128999917,6.427950791,2
654.2347478,0.144115272,5.485983636,2
717.8209013,0.112309788,7.529329539,2
646.9595649,0.125479515,4.449083632,2
784.5113541,0.121541755,6.136715288,2
764.2081987,0.18216322,0.277219007,2
762.6109339,0.136371769,3.494646375,2
808.5220518,0.130554514,3.812871365,2
599.7983314,0.117324885,8.466528502,2
675.2812017,0.127184632,5.656605294,2
507.292979,0.12171689,6.78739262,2
724.4015675,0.125492611,8.991112639,2
779.5329279,0.117733149,10.57955677,2
692.7168698,0.121971526,8.646370314,2
661.6363517,0.124822769,6.590610412,2
604.6222887,0.115468907,11.72781126,2
775.4209448,0.118510398,8.757318962,2
432.1101054,0.128226664,1.750844065,2
661.6356595,0.119625801,8.716846559,2
559.2632367,0.115248541,8.402939252,2
511.7440607,0.21100223,-0.545548752,2
648.2258344,0.124344317,5.990695117,2
691.7070561,0.113603671,10.71713109,2
684.7771293,0.116968721,10.456738,2
770.4324372,0.118174533,9.087797587,2
679.8184777,0.124628744,7.2515603,2
601.1519743,0.12020863,9.510374408,2
655.847196,0.109949175,11.55921884,2
690.8879874,0.124662995,5.748078832,2
698.2614432,0.110037347,9.512415308,2
663.4177757,0.125801095,6.613615531,2
541.2069962,0.120625885,7.523296918,2
622.265201,0.116459491,10.12750722,2
650.7119784,0.109191486,13.36621994,2
696.0450327,0.113461399,12.60137549,2
750.7416261,0.118222302,12.47153884,2
675.5034826,0.111624936,10.77936594,2
826.1080309,0.1207581,6.704579463,2
716.5656115,0.109512747,11.14236616,2
731.5267841,0.111072796,9.918364691,2
525.7388834,0.107806362,9.294436522,2
752.1976521,0.130978419,6.243343731,2
685.547397,0.122240783,8.942060434,2
639.1145069,0.122005203,7.780262793,2
645.5343687,0.11947979,6.564940524,2
617.2932172,0.123070662,7.266188744,2
740.111579,0.114548263,9.807736106,2
506.4703758,0.106814788,10.23052993,2
751.40556,0.112999495,8.204901246,2
623.6846096,0.114065213,10.33679052,2
578.9889011,0.121715791,5.950354774,2
683.2573762,0.114945888,11.3693869,2
589.8570764,0.118306805,10.19756756,2
627.1041738,0.116741421,11.36889392,2
693.7971136,0.110284322,13.29864968,2
596.529415,0.11597492,12.39549446,2
619.4439484,0.118003953,9.975812678,2
540.1975535,0.115710053,8.219476722,2
673.242067,0.107250969,14.54449516,2
590.5911013,0.112884102,9.058470993,2
593.4136219,0.120826762,9.00412426,2
538.4324579,0.110904029,9.80014065,2
621.6447769,0.11395518,14.2687385,2
589.700729,0.118760638,8.658228036,2
589.3030926,0.113216991,13.98840891,2
593.2647997,0.120297746,8.684279895,2
627.0261252,0.117899042,11.18393287,2
542.1285329,0.110431275,13.00002587,2
638.1718477,0.115922283,12.87672321,2
650.1810708,0.130617078,5.59655562,2
590.619443,0.116250228,13.12441313,2
702.1609242,0.109668519,15.07488788,2
580.6128248,0.114229089,8.729973957,2
718.4431736,0.199173129,-0.44372508,2
593.13188,0.12065502,6.016535759,2
695.6257812,0.119405788,9.042517936,2
698.7629101,0.104581915,9.583703122,2
597.8514299,0.117164197,10.50093983,2
612.1174457,0.122021335,9.345308642,2
333.8675679,0.123465968,1.607933638,2
621.2707382,0.116201627,12.76796909,2
551.9816529,0.113415164,12.44774111,2
605.3160007,0.123565345,7.640726508,2
730.7945159,0.114383289,10.13583088,2
587.9079971,0.121027133,11.87466128,2
607.5308648,0.117307661,11.02928227,2
815.3503823,0.126605067,5.900684439,5
621.1263321,0.118807331,6.214856233,5
716.3681049,0.123149808,6.488864341,5
773.3646722,0.129451767,5.831246752,5
814.0361536,0.125719131,6.597080838,5
613.4185036,0.13017412,5.935269836,2
626.9107267,0.124224768,6.679743039,2
640.7832193,0.131449568,4.084983713,5
704.7055395,0.134150992,3.267054669,5
825.1900729,0.136512163,4.33063391,5
741.3551739,0.125348765,5.886904664,5
755.9167931,0.125172939,7.642445555,5
802.7899213,0.13209499,5.208587113,5
655.6904939,0.122241713,5.195072728,5
788.7615362,0.124642564,4.993691132,5
798.6843359,0.123457057,5.473144169,5
410.9138479,0.175847995,0.172729037,5
493.5685062,0.111738435,12.04867902,2
763.9084505,0.150131955,7.658123229,2
573.0882345,0.11096547,13.32966756,2
645.4188051,0.122625209,7.264216756,5
784.0198419,0.129490301,6.900047609,5
724.0977763,0.124279906,6.214243212,5
690.0653364,0.121079141,7.423024121,5
683.7441201,0.122130655,5.871820103,5
713.5136746,0.122423252,5.446814333,5
623.9624544,0.120125088,9.609697645,2
709.8190655,0.131168655,8.072921901,2
734.9208714,0.138874989,2.899197213,5
585.9891088,0.126235619,10.31786499,2
649.3082513,0.133024428,3.111059524,5
517.6120631,0.110600346,11.67963059,2
714.545248,0.126954008,6.211794792,5
672.3566915,0.122200196,4.780586605,5
830.7477424,0.12771622,5.461403996,5
355.5745028,0.203728264,-0.36586847,5
618.5675846,0.117291377,9.038641628,2
607.3136394,0.1870877,-0.20200572,2
654.4735388,0.120897355,8.39913522,2
622.9897308,0.12643308,7.182916731,2
657.9931009,0.133166324,3.613776876,5
793.0416746,0.13527349,2.636796991,5
1269.055313,0.19592447,9.13661336,5
591.3906768,0.118751048,6.764607193,2
553.6014913,0.136044262,3.984100222,2
684.9221089,0.126510561,4.719840598,5
734.9058167,0.131915905,3.627634651,5
805.70123,0.133472427,3.578203444,5
779.9361826,0.127940708,4.925349313,5
1132.028369,0.212586956,5.80043223,5
384.9704805,0.156745876,0.670068207,2
613.5743717,0.116622569,10.7594077,2
612.0811906,0.110120906,13.28408179,2
734.0225876,0.120547888,10.24752691,2
633.7746834,0.126123016,5.549297206,5
836.6830335,0.134654456,3.532022012,5
704.550307,0.128630841,4.037914642,5
746.2034056,0.128341571,5.217691849,5
653.2482809,0.119623908,6.329943001,5
737.2004387,0.122731429,5.543197885,5
820.9345906,0.129462021,4.757766545,5
766.8308504,0.126620508,4.107964616,5
716.39087,0.149406247,16.3152798,5
671.8970542,0.122573023,6.94373283,2
758.5707776,0.134285619,3.614308037,5
347.6379708,0.132681664,2.298070692,2
649.1429708,0.121992712,8.959265773,2
1267.240234,0.221781787,2.390565948,2
556.0844199,0.124565461,7.656603919,5
671.7606309,0.125589438,6.086286401,5
711.4474902,0.123841277,6.133068003,5
639.428182,0.118760112,5.43333772,5
693.4309005,0.123518526,4.878793471,5
729.8885706,0.128964804,4.064792944,5
715.7181716,0.12542119,6.144668521,5
760.6484596,0.127728302,5.51347343,5
737.9695265,0.124268402,5.763190386,5
1000.217286,0.205959824,5.208586374,5
259.8666046,0.260562174,-0.899388434,2
664.8767003,0.117309941,8.664717689,2
1086.963014,0.197406126,6.153528739,2
611.1351971,0.118195895,10.73007975,2
644.4088101,0.122287482,5.328633974,5
778.4785648,0.131386498,3.383097688,5
803.613973,0.126731135,4.150067123,5
741.7532068,0.125890092,4.257646869,5
743.3224413,0.124008707,4.146537044,5
534.6877679,0.202521137,-0.606740832,2
527.5965246,0.114647128,8.931845623,2
638.7324491,0.117309314,11.0520866,2
742.0473631,0.113327297,11.39503577,2
605.9982297,0.129910885,4.627162781,5
825.5835166,0.134368588,4.467203988,5
744.1346924,0.124657322,5.216977477,5
769.7845186,0.130156521,4.320099011,5
722.097763,0.124691526,5.045710576,5
731.5842242,0.122444868,6.420252412,5
740.7085816,0.125429562,6.070595768,5
809.1599923,0.127699719,5.095507921,5
540.8009165,0.108145464,11.87662711,2
592.663664,0.121304642,10.70607927,2
723.6710114,0.130083001,6.29225779,5
721.4193909,0.123195588,4.605361681,5
721.3473061,0.123867462,5.326602252,5
785.8668799,0.129068283,4.468836373,5
728.7104639,0.122333032,7.256821445,5
738.4960851,0.123489806,6.909176825,5
711.9123925,0.124167534,4.92963654,5
1117.018433,0.182825245,10.85518604,5
612.7093447,0.119267068,14.29658303,2
618.1543942,0.122424877,10.34331866,2
670.2721818,0.129174291,5.735196673,5
848.9403669,0.136936045,3.435012925,5
746.8970431,0.171606197,0.902231286,2
611.0038086,0.116571947,8.893240135,2
645.0598022,0.131239816,4.13216047,5
772.8400011,0.133163343,4.169211819,5
801.2182715,0.130176349,6.42528684,5
706.1347664,0.124591713,5.317602437,5
796.0409505,0.132019773,5.145810692,5
756.2994252,0.128579393,4.660772279,5
573.8867153,0.111268377,14.20329935,2
622.9621527,0.12243975,8.206642589,2
576.4145797,0.126422789,4.23088345,5
710.9914211,0.125039015,6.336371518,5
726.6879895,0.125594195,5.438072149,5
744.0507783,0.124234614,6.100949079,5
768.3441969,0.123940431,5.479868657,5
801.8122355,0.129537496,5.166920769,5
551.9172782,0.112628476,14.79495487,2
990.5399277,0.228829512,3.609065891,2
576.626045,0.117802078,10.94285194,2
723.8563862,0.128715789,6.03097944,5
758.2529691,0.126300069,4.373530498,5
737.3206419,0.123825821,7.405532595,5
746.5572908,0.126635073,6.03547965,5
663.8964406,0.120138923,5.920825225,5
765.5732397,0.126469257,6.779676743,5
744.8641625,0.124540998,5.485471578,5
788.2345838,0.123451157,5.761812938,5
1160.431293,0.212936045,4.866055162,5
556.7877336,0.126969564,5.422760528,2
671.9747569,0.123533424,7.046851223,5
650.1398981,0.226858298,1.943878963,5
649.444505,0.110911281,17.50511277,2
561.0142616,0.116020861,8.750328312,5
742.9178432,0.12316101,5.415852552,5
750.0783171,0.125820801,5.316806232,5
734.8489004,0.119627543,6.412226773,5
763.2076133,0.126658123,5.917710995,5
710.7211643,0.119181849,8.015667,5
483.6635888,0.136988923,5.574805073,2
588.8846567,0.115214879,10.84529389,2
618.4251379,0.116716511,12.94231253,2
782.8452199,0.137769289,6.03315146,5
438.808524,0.108797121,11.90074873,5
594.9788674,0.116607567,8.048047961,5
684.5550228,0.128522049,7.347977978,5
555.4832462,0.116015003,12.25763989,5
392.8100125,0.191291762,-0.465575431,2
579.8324851,0.115772671,11.03087481,2
587.4597809,0.115761832,10.91777905,2
756.3132987,0.132383029,4.747739276,5
748.6384544,0.125132371,6.454477668,5
720.1827102,0.122895182,6.09256792,5
431.4079377,0.224566447,-0.719959233,5
715.2275737,0.124200447,13.17124858,2
633.6277071,0.133283332,6.360569383,5
648.4768944,0.122418308,6.99736971,5
745.1222387,0.132520664,4.931216876,5
706.3016388,0.129724161,4.765533411,5
669.8512719,0.124801273,6.186279785,5
731.1994344,0.126105728,5.889536312,5
756.1488486,0.130080905,4.694650591,5
724.0195593,0.127218491,4.61047108,5
784.4324345,0.132001085,4.301212246,5
820.6334003,0.131338556,4.468418121,5
989.86912,0.211490391,4.389641118,5
627.923032,0.117672071,9.513706079,2
777.4110956,0.114163623,6.946513241,2
716.1192245,0.140093967,2.906303474,5
773.6103608,0.129766504,4.002385898,5
669.7506804,0.12781911,4.87583787,5
783.1853258,0.13455982,5.099946323,5
747.7500217,0.1299833,7.527733773,5
722.0840241,0.125085393,9.221577357,5
778.2427432,0.128401805,7.010110144,5
696.7521448,0.12048442,7.293820836,5
756.1704461,0.126470679,6.341310111,5
786.5945621,0.128035726,5.086993278,5
616.428807,0.116967978,11.90935165,2
1334.701885,0.210147881,5.157707775,2
413.9677657,0.262297504,-1.049182995,2
560.8926142,0.112544111,13.1255273,2
356.6781945,0.14439712,2.123754329,2
589.4443876,0.113753769,13.55706239,2
952.4398027,0.216981579,4.039244315,2
595.5714124,0.118074681,10.91324003,2
710.9700448,0.203171737,3.161258299,2
727.7728851,0.131130071,8.300190282,2
628.0868345,0.134016973,4.012149656,5
755.9353758,0.132940405,5.276177941,5
711.0635169,0.130286854,4.84887045,5
759.3098679,0.133960383,3.993469488,5
732.2747171,0.127975133,6.473706846,5
670.9172895,0.122966529,5.795991487,5
749.6207259,0.124169269,5.631987763,5
665.4906137,0.120031458,11.63191307,2
606.4521713,0.131504892,8.541968186,2
646.0237901,0.127153476,7.154458921,5
736.9369916,0.128973439,5.307212868,5
699.5145118,0.125080137,6.821928388,5
672.9944827,0.12692969,4.824123128,5
787.4345499,0.13309996,4.102448952,5
753.8346976,0.135826957,3.162530876,5
811.8115149,0.138513273,2.631271062,5
644.1503864,0.120302285,6.349422186,5
707.7308789,0.120442272,5.98612827,5
573.6282732,0.117248043,10.20618992,2
668.2405062,0.112769467,17.30114062,2
545.302427,0.117178718,7.929738231,5
779.0948805,0.128734484,4.824263649,5
744.0150627,0.127052615,5.903270106,5
755.1247842,0.124555652,6.305669455,5
729.1719138,0.123191746,5.867770202,5
780.6705904,0.127402219,4.459767101,5
605.9189842,0.114725389,13.86683337,2
657.3353018,0.112224588,11.9758674,2
633.3701158,0.1280217,7.103987641,5
750.8804291,0.126511177,5.471212992,5
639.651496,0.123908183,6.122741277,5
671.7116491,0.121466897,5.182377603,5
693.911336,0.125577231,5.179985673,5
605.5851136,0.120376753,5.209334913,5
656.5186777,0.122366947,6.658838174,5
681.0203354,0.121978118,7.682262049,5
688.4056641,0.118971836,9.588547534,5
652.9055421,0.121794179,9.223641404,5
747.6490082,0.125633144,6.326731815,5
822.5142207,0.127634309,7.664700659,5
1015.017464,0.210063231,3.925830021,5
536.8250558,0.132942941,7.627343171,2
618.398936,0.124453625,11.47006246,2
753.2451841,0.138749963,4.04933784,5
725.3760514,0.12701157,7.647669931,5
580.2339818,0.116315139,7.917511897,5
682.2286872,0.124446648,5.887181975,5
721.9340452,0.126421515,4.477529318,5
757.0954317,0.13027873,4.083861692,5
793.7749779,0.13172826,3.39881276,5
525.0492461,0.111689225,13.93088989,2
521.3056745,0.133729979,7.60464805,2
498.6474599,0.122285494,5.909098129,5
685.615345,0.128443022,5.016125246,5
946.4023435,0.229224539,3.246240994,5
660.8265756,0.120575016,8.935197408,2
722.3265811,0.14427866,2.974706045,5
704.4762933,0.123506961,6.007336562,5
739.079541,0.129689605,4.185537596,5
759.0986973,0.126796853,7.394516594,5
772.0405017,0.132404791,5.42952446,5
733.8677266,0.126717075,3.905311193,5
1212.96339,0.218942745,4.968728216,5
333.2223354,0.158070478,1.35780534,2
599.8035984,0.116116169,11.67625581,2
720.135975,0.222187625,2.73933292,2
606.0660695,0.117146002,12.58042218,2
631.0238529,0.124220674,7.640542925,2
825.7406926,0.142813908,2.528694134,5
748.3673237,0.142157337,2.55725273,5
724.6216468,0.129531233,4.257181003,5
692.966242,0.127232299,5.277755536,5
708.6005021,0.126584074,6.310669774,5
750.0969734,0.12433037,6.40995993,5
799.5768184,0.129334283,5.599984886,5
773.791576,0.133886014,3.003567658,5
562.9118487,0.240337185,-1.17973382,2
611.675204,0.120922414,12.1248404,2
541.5745021,0.111314733,13.00068738,2
622.7045931,0.120706103,11.32024422,2
593.2741472,0.139224039,4.936154338,2
772.0361527,0.140134247,3.550049937,5
738.2755584,0.136349049,4.16656539,5
677.3196315,0.131128012,5.828372888,5
697.2852939,0.126049129,5.033306605,5
763.8274685,0.13109153,4.283045672,5
846.2083573,0.154472895,1.851834569,5
1197.425193,0.181080555,0.799033328,5
939.1395851,0.155071325,3.156887109,5
783.6380616,0.129696774,3.991668767,5
1023.714777,0.222990575,4.532184177,5
679.6896703,0.125169333,6.330840146,2
1128.737978,0.178729714,1.453290842,2
495.6048713,0.108522405,13.03490109,2
939.6063122,0.209505214,3.86739671,2
577.9118662,0.118099761,9.690343873,2
711.376099,0.137644836,4.470351481,5
705.0809924,0.131858549,5.661238572,5
713.2436032,0.123917064,8.431954159,5
685.2760878,0.124456954,7.276367683,5
693.8747191,0.12841632,4.707674177,5
740.2611973,0.131902984,3.993416268,5
724.3730813,0.127278362,5.159862388,5
704.451507,0.126165289,5.0956963,5
726.7945581,0.128295301,5.397216077,5
691.777204,0.123694893,6.393434592,5
761.2203891,0.12770332,4.786738713,5
715.0068526,0.124991855,5.411406539,5
705.6225906,0.124099439,4.676791652,5
878.7068624,0.132018635,3.503563573,5
878.5052436,0.20259318,1.698610629,5
591.4669754,0.113650213,13.18358311,2
624.6188309,0.119337344,15.94814666,2
680.5758769,0.130067694,7.78437002,2
685.8813255,0.135893796,4.086775847,5
808.4466003,0.135407093,3.476597495,5
774.3095694,0.132965081,3.751975071,5
663.3534429,0.12685514,4.763447906,5
729.2809691,0.128910895,4.062088484,5
706.9303738,0.125987377,5.429028715,5
697.0654248,0.129912383,4.89418983,5
782.4587759,0.132710315,6.879018533,5
635.4159477,0.120622116,5.922487272,5
740.3094533,0.127720437,4.612925676,5
799.5678148,0.129346,4.312545892,5
581.1414309,0.115078743,15.09858132,2
523.6441746,0.111909452,11.57094963,2
773.914004,0.132606421,4.137026479,5
633.9006431,0.125233582,4.960154817,5
712.2384988,0.130134072,4.069651762,5
776.8555509,0.13416041,3.790520032,5
706.6496652,0.129126521,4.913639466,5
667.9673095,0.119566035,8.516385087,5
696.8223622,0.124011331,6.732454428,5
570.2862014,0.111870894,16.36908693,2
1029.544839,0.209803648,5.10757926,2
589.3113908,0.116478901,14.27804751,2
554.4063573,0.115455321,14.18458393,2
622.3017067,0.117026459,14.65143545,2
591.9837328,0.117924857,12.38688279,2
999.8659886,0.224482418,3.996569031,2
661.3116384,0.122296399,10.37895288,2
701.4901885,0.140833325,3.189697957,5
837.0479822,0.147278902,3.159831669,5
725.0680808,0.12826966,4.982192366,5
652.1930599,0.125433768,6.038874259,5
721.1257393,0.131989303,4.205854015,5
702.3348861,0.131863321,3.321529522,5
755.5419282,0.136043582,3.09949088,5
856.9898887,0.153295514,1.397857995,5
784.3533461,0.141587051,2.685246446,5
907.8430343,0.233321732,2.441643094,5
676.5079326,0.133772567,6.336857857,2
491.5639048,0.231878894,1.241706117,2
549.2685889,0.121430987,7.25936669,5
753.8930456,0.129960577,5.092977104,5
714.1494581,0.128409109,6.403963348,5
729.5939716,0.125563457,5.347980586,5
747.6200562,0.128019431,5.700463415,5
633.610581,0.119467556,5.083925743,5
804.8732395,0.133791638,3.504803477,5
703.1588362,0.121867278,6.496554977,5
778.4668337,0.1305799,4.166140458,5
789.2656575,0.130960886,4.545288829,5
803.5231342,0.131675259,3.834052938,5
608.4211934,0.112994664,8.768766019,2
467.7940452,0.109312871,6.653978551,2
623.6941808,0.120553975,9.553280995,5
700.7375861,0.124880524,6.57990978,5
634.8044866,0.122591915,5.728363627,5
715.1430401,0.126479757,4.451053627,5
855.7788396,0.136105474,3.117675408,5
677.3113492,0.123779906,7.847425102,5
733.1336386,0.127368417,5.71714559,5
737.4933445,0.126677677,4.646394714,5
799.7846713,0.130631117,4.732404827,5
848.2698372,0.133711096,4.426954663,5
808.208989,0.129741039,5.799892795,5
600.5924489,0.118918268,10.71164683,2
673.4904015,0.1274998,4.660756295,5
811.6992948,0.132933847,4.658119066,5
589.2505755,0.114610907,15.02807705,2
568.622701,0.120591438,9.9058226,2
726.111756,0.134609105,4.946590835,5
833.1954034,0.1361316,3.742698847,5
731.0334765,0.133715703,5.827522153,5
794.8699924,0.135399029,4.011142349,5
820.9198948,0.127279524,5.435003313,5
808.4733581,0.127569499,4.996805933,5
620.9104876,0.222220791,-0.545348506,2
603.3866719,0.119911394,10.15460006,2
699.4358161,0.112838205,16.0284912,2
656.3609668,0.129624726,6.828882139,5
798.3035809,0.129599548,4.584374551,5
837.47537,0.132601756,5.907922813,5
833.6551572,0.134478096,3.627389828,5
826.3407404,0.13606593,2.742417999,5
507.7618905,0.109159813,14.18260219,2
639.2116018,0.118943178,10.22769811,2
729.0917791,0.130496303,3.992204463,5
813.0147122,0.13214971,3.720059982,5
847.3371202,0.135771623,2.667608729,5
795.227339,0.134549313,2.464828414,5
714.4819642,0.126227979,4.24884253,5
745.0431029,0.125630222,6.609162755,5
848.5146231,0.129710533,4.635044999,5
608.4966198,0.11903778,9.139984389,2
1101.32721,0.193834762,7.188531794,2
406.8639487,0.169565416,-0.14468011,2
604.3069229,0.117046645,13.53370337,2
685.1693053,0.1276782,7.641177429,2
753.3251579,0.141400212,3.652038756,5
852.5706705,0.140435975,4.233826587,5
697.6040567,0.12423238,6.304152452,5
699.5704463,0.124835802,5.847380294,5
844.6330932,0.134759883,4.306934864,5
807.1903346,0.131153377,3.981783748,5
811.4139905,0.136533621,3.047037861,5
802.9061028,0.126761568,5.914468486,5
1044.642783,0.225713754,4.183756818,5
491.5661874,0.186270773,-0.212418084,2
577.7564687,0.11296314,11.63041462,2
690.3389763,0.12905005,7.018705961,2
743.2023911,0.137707895,4.191219147,5
790.7268406,0.131791985,3.21038726,5
890.9580984,0.14712706,1.762306276,5
827.4685525,0.130908446,4.302584606,5
775.1464394,0.134980928,3.954413225,5
755.0656772,0.123724394,5.811270785,5
545.7799545,0.112242091,10.99576117,2
1187.252462,0.211085191,5.433637103,2
644.9506023,0.127857528,6.646033468,2
729.9993474,0.137127927,4.687121874,5
750.3292208,0.130750914,4.831638503,5
826.7015804,0.132370136,4.820317243,5
770.1897541,0.126458267,4.902865398,5
882.8373262,0.137835112,5.485534996,5
711.9710684,0.121930725,8.564100045,5
617.5139452,0.118059725,11.27891829,2
634.4386572,0.123442223,8.177073422,2
672.6449371,0.127606152,5.273458791,5
864.4534185,0.136381836,3.881961969,5
769.5288163,0.12502871,7.591552742,5
760.8879273,0.128958853,4.541348872,5
791.5415726,0.132360966,4.336978538,5
757.3814168,0.126616005,5.63755903,5
835.5036127,0.133551087,4.974786372,5
603.1832417,0.113370378,9.021064746,2
765.7680042,0.11542925,11.73100948,2
762.869903,0.13598173,3.961380179,5
882.3772024,0.134950795,5.131775461,5
780.9414188,0.130285192,5.72521454,5
738.7248656,0.124731078,6.158915561,5
878.6474037,0.132960842,4.172360096,5
807.9887543,0.130911864,4.794829145,5
833.3630546,0.129941201,5.234464925,5
1073.939994,0.224808735,4.623943525,5
626.6481452,0.117277699,9.848497761,2
951.3943129,0.224067032,3.296251891,2
557.3470653,0.119787258,9.716958235,2
758.3886798,0.133055026,4.211667192,5
890.3990988,0.13747795,3.963410893,5
865.9601858,0.136024497,4.650938332,5
828.545858,0.13531697,5.67417673,5
605.9611644,0.115385912,13.19243182,2
787.4773785,0.208564786,3.687618251,2
700.9949541,0.125829657,9.216491481,2
776.3061849,0.139960558,4.042116838,5
842.7295096,0.134925083,4.79314794,5
790.5849488,0.129604162,5.361792677,5
817.7418981,0.133315527,3.841075212,5
817.8371635,0.129543787,4.973990553,5
529.7726625,0.172685251,0.048293146,2
607.9759975,0.114191171,14.49370395,2
608.0108679,0.119922275,10.5191551,2
729.8222919,0.130704692,5.165941888,5
786.2823075,0.128482519,7.141747247,5
788.7992163,0.12948494,6.960351461,5
753.3192742,0.126171716,6.157152641,5
818.7336469,0.130237391,5.227759157,5
771.1811112,0.124842079,5.548451252,5
853.9044783,0.134859198,3.387322066,5
741.7931201,0.125533511,7.636505115,5
776.3815503,0.12709886,6.513644657,5
836.5598875,0.129093494,5.564296448,5
730.6528144,0.11800382,9.213486986,2
693.5808565,0.11397211,11.69488364,2
688.2334099,0.126817126,6.359656792,5
820.4864852,0.132990028,3.987543669,5
740.4390681,0.126319755,6.33653782,5
715.3583555,0.119007369,6.668399413,5
625.044696,0.119716754,10.65177759,2
905.4075974,0.219720191,4.189513427,2
557.9912304,0.112814975,12.86335855,2
580.0441812,0.122514278,7.697800204,2
782.398827,0.138516586,3.060288762,5
820.4619144,0.134167554,3.673423271,5
710.9918973,0.126685167,4.537944164,5
781.5258245,0.129384248,3.632939068,5
1487.560947,0.213492796,7.112226527,5
684.7283305,0.125502171,11.3415508,2
685.7654362,0.112242218,15.87270672,2
634.9746374,0.125602168,6.695388353,5
838.5854582,0.131082184,4.675150144,5
737.074666,0.126342465,4.382263905,5
828.4506386,0.130862743,4.639153808,5
750.4988878,0.125876449,4.073350493,5
773.4482672,0.127140358,6.022369305,5
749.7543214,0.125859799,6.96242503,5
777.906248,0.126535381,6.272605066,5
760.1795213,0.127276333,5.040552611,5
601.6196994,0.11656439,9.912203627,2
912.6129752,0.211695737,4.028390242,2
631.4544064,0.121791103,8.032163297,2
637.7946305,0.125185468,6.465990541,5
809.9100569,0.134789274,3.443562509,5
796.6033178,0.131061752,6.043176142,5
717.3699529,0.123176988,6.104311196,5
796.7693442,0.129097345,6.342842208,5
838.4358131,0.129759973,4.2815876,5
757.7324571,0.125821268,6.947722889,5
915.7779809,0.193256057,1.382771057,2
576.7716707,0.115369386,12.45056982,2
616.912674,0.115121494,10.96299648,2
689.9786281,0.125765293,12.44440325,2
589.8639778,0.127570536,5.822965349,5
773.0611989,0.130783734,3.839540212,5
838.3171748,0.133486294,4.731483457,5
765.8871594,0.127896655,4.893854016,5
1020.983756,0.218307078,4.824085109,5
598.5404057,0.114796865,9.589162849,2
639.4225901,0.123034244,6.8229373,2
749.3362756,0.140912147,2.355920467,5
849.5476345,0.134156395,4.200006233,5
752.1762018,0.131567616,3.550240956,5
801.7559892,0.133238615,3.58411947,5
1134.164542,0.212543709,4.005174642,5
608.4407219,0.121235749,8.561787053,2
589.1512397,0.117474628,10.8334466,2
715.0604591,0.123637755,7.691239412,2
718.0084355,0.13196436,3.775079937,5
693.7184362,0.128906004,4.427895666,5
830.9766686,0.134645712,3.544309283,5
726.8724968,0.127258411,4.321506733,5
742.712547,0.131045479,3.450240065,5
826.2416455,0.130985665,4.435365345,5
1000.486872,0.202670979,4.865820783,5
640.9304232,0.109903504,15.42441376,2
698.521499,0.131884142,5.728273134,5
748.9798196,0.122057624,5.877970609,5
657.7352641,0.118587085,8.121694512,2
627.4545231,0.125257304,8.207388811,2
626.5494325,0.122992057,6.314397417,5
658.9933172,0.123138508,8.900705274,5
764.0022633,0.122776634,7.383974793,5
438.4224207,0.193314442,-0.29621988,2
602.3129566,0.11748771,10.24804821,2
741.7368005,0.172631333,0.738709298,2
601.5083005,0.117968224,12.18865222,2
916.7497663,0.165446267,11.18261918,2
421.9169609,0.179722794,-0.497604517,2
590.7047859,0.117134687,12.8280187,2
973.2081726,0.16922702,11.4677513,2
567.7832661,0.116722299,11.82441584,2
1163.117656,0.225344481,4.153480613,2
587.625609,0.118610669,10.25291834,2
906.0925623,0.223048245,3.334908695,2
584.4370811,0.143887875,4.364853884,2
699.0408927,0.130935453,7.670639958,2
691.6998984,0.127233083,6.296861419,5
719.8677458,0.133994981,4.937351641,5
700.7042406,0.130470204,4.950216085,5
627.2105707,0.124233035,5.880697985,5
726.3677834,0.125912789,5.614278949,5
588.2969379,0.122377269,5.446341243,5
733.2194733,0.129365287,4.470089253,5
683.4995088,0.130532098,5.224481976,5
966.1174196,0.156432396,2.584775651,5
850.9502766,0.135708789,2.887735149,5
648.3692417,0.115829555,11.42690452,2
670.6292985,0.119386525,9.791518139,2
746.4924211,0.131835153,4.052162154,5
1027.765526,0.144035241,2.440749,5
810.8705555,0.132685958,3.470432576,5
732.6106453,0.131363081,5.72447211,5
782.4784841,0.132840569,4.066920614,5
801.1376051,0.136698861,2.810872789,5
729.6566112,0.128322481,5.652882135,5
717.8768484,0.121627553,6.125345721,5
746.1231751,0.125214028,4.583550488,5
871.2778097,0.133774909,3.270220575,5
873.3891581,0.129089902,4.147161456,5
633.3851881,0.120622196,9.904063399,2
549.6503779,0.114013068,11.52195991,2
695.7606616,0.115460076,10.23602427,2
673.7456932,0.131474735,4.454192248,5
872.3474215,0.13807407,2.744115786,5
718.1765396,0.127670934,4.676709395,5
720.2027163,0.127122256,3.925515054,5
720.3446066,0.125834628,4.288252151,5
785.9928762,0.137333437,2.683966456,5
823.3729143,0.135736969,4.242790927,5
758.8090837,0.12443808,4.925682589,5
833.6693451,0.128185689,4.178070027,5
411.6887323,0.190747358,-0.738886312,2
561.4953163,0.111793171,10.51172545,2
606.1059786,0.114428908,12.32814468,2
612.2294292,0.124030935,8.350247538,2
656.5224891,0.133491278,4.352789425,5
825.2974558,0.135558191,4.257546901,5
733.0683512,0.129623856,3.062940932,5
860.0938131,0.133913803,3.708910352,5
844.0108964,0.133340431,3.786712734,5
865.0532992,0.135899204,3.819396576,5
857.6619753,0.132682579,4.012460786,5
1265.476028,0.201504304,8.309428489,5
614.7545187,0.118799246,12.95873229,2
613.9415051,0.126165547,8.150482631,2
706.9716979,0.131681644,5.364267732,5
823.0436865,0.132666017,5.606371077,5
796.471417,0.130171542,5.151360595,5
837.6930918,0.133648242,4.41132175,5
801.5752839,0.132206749,4.127116676,5
849.0612935,0.135190654,4.275890707,5
900.6257041,0.140088673,3.99977514,5
766.7286639,0.128641902,7.637436721,5
839.9033591,0.129542852,6.247642253,5
674.1102485,0.123402324,8.615424428,2
1015.548961,0.227717546,3.791990109,2
664.7439315,0.126149133,7.905456244,2
664.24836,0.135444157,3.838734955,5
846.2825977,0.139971095,4.34961417,5
771.3852143,0.12748026,6.828492235,5
737.9689273,0.128902425,3.832244483,5
841.2535037,0.131618855,5.674167085,5
804.3536057,0.130868794,5.235902859,5
834.1366902,0.132129691,4.431350979,5
782.4524238,0.129082465,4.410397657,5
571.2203873,0.118851988,8.276037734,2
702.2886258,0.126773317,5.197830088,5
872.6244879,0.136182142,3.648242784,5
899.3706606,0.133502388,4.537533108,5
591.3664833,0.147273609,5.195852017,2
574.5092069,0.118421305,8.642133718,2
618.8767487,0.117275956,7.813808294,5
896.6037561,0.132542126,4.220271552,5
219.5884323,0.111100572,13.55725322,5
1871.853969,0.2360193,1.712327054,9
1492.539808,0.163485555,4.000708162,9
1493.675106,0.193610876,4.232174668,9
1316.643724,0.188323493,5.495376916,5
1650.020628,0.171710848,4.875080411,9
981.0211987,0.161785006,6.473326606,11
1345.493331,0.188857522,1.32190231,9
1193.165317,0.163536319,2.429400419,9
1566.461639,0.171011983,5.117847419,9
1529.896587,0.164033008,4.45455429,9
1470.576317,0.157630669,4.803900263,9
970.9026231,0.147215869,4.051106041,11
1670.108067,0.234538688,0.808956085,9
1558.915022,0.178995286,5.0656651,9
1580.064621,0.185479783,7.034080905,5
1504.641069,0.187977125,6.935285074,5
1285.34813,0.153871043,5.070801033,9
1664.681537,0.193286508,5.833162606,5
1045.143543,0.181320777,1.368350875,9
1985.768337,0.167800028,2.395162175,9
1187.519101,0.197011863,0.321201123,9
1324.940377,0.15325635,3.260111428,9
1661.285402,0.195159039,2.952761745,9
1748.733414,0.169405919,3.737637395,9
898.373093,0.155947348,10.83784987,11
1087.38532,0.19235794,1.197077132,9
744.3236241,0.126538274,27.47424658,0
719.2807513,0.127673744,28.61718769,0
657.4285338,0.125386268,28.58091393,0
729.098287,0.125966297,27.8400577,0
688.9220571,0.12431825,30.68687367,0
695.0712258,0.123222621,29.42823123,0
731.883647,0.127452494,28.36534409,0
672.0263434,0.123075397,30.73232256,0
756.6044186,0.129933785,27.15928703,0
668.5519422,0.12307353,29.50734868,0
738.3125769,0.134277414,23.65152165,0
726.2615457,0.127369175,27.76555787,0
698.2193753,0.12601386,29.47860798,0
698.6297752,0.126650663,29.03607217,0
700.4667191,0.124490429,28.00919178,0
674.6397455,0.124921467,29.10717485,0
711.8137179,0.12603076,27.6921452,0
704.261824,0.126912191,28.40497443,0
679.765787,0.124915532,29.0229702,0
715.3284787,0.131405145,25.36196655,0
704.9886381,0.127468097,28.31103491,0
600.1359131,0.118992788,30.84509473,0
634.2524959,0.124551093,30.31332615,0
743.8787464,0.130665042,26.02037951,0
627.4510579,0.124514232,29.46956861,0
651.3469507,0.124620723,29.69491132,0
702.2732322,0.127213379,27.6319961,0
659.155249,0.124506673,29.10390638,0
716.4547361,0.128982081,25.78110843,0
736.0840735,0.128577194,26.93377349,0
663.3124375,0.125908334,28.65445091,0
720.1092237,0.129813853,26.01910965,0
687.7999502,0.129311483,26.42053324,0
726.3446995,0.130847714,25.57339761,0
682.3717533,0.125185711,27.86976909,0
661.9403556,0.123090983,30.13751088,0
657.5977404,0.122493155,29.71028728,0
664.4624991,0.126156056,28.96928057,0
687.2026442,0.125094279,28.83803455,0
722.3557202,0.126150113,28.33026417,0
715.2582424,0.126757087,29.63892916,0
690.8856028,0.126380837,28.88342443,0
664.4731145,0.123975238,28.56408302,0
654.2503485,0.124835347,28.36191726,0
685.7328478,0.126788371,27.05144882,0
694.1198905,0.128699539,27.97818376,0
717.4288999,0.134065516,18.91219561,0
652.2196781,0.12585558,28.70625326,0
733.2218651,0.127435397,27.21322414,0
689.9516808,0.125981342,26.1100826,0
689.2938277,0.12569178,30.20017478,0
709.9720442,0.127208743,28.68840894,0
650.803721,0.123578299,30.89814467,0
706.5638848,0.128780987,28.44271527,0
746.4386285,0.125850811,28.62010576,0
677.7566086,0.122362412,31.15128544,0
727.8587475,0.126314477,29.21425561,0
729.448073,0.125924051,28.83405897,0
659.8717964,0.126769803,26.89249737,0
683.3683273,0.125233117,30.83140852,0
649.4857546,0.123607834,30.16314934,0
786.9501009,0.133596048,23.41573251,0
770.6049996,0.131735287,23.05636192,0
678.1885901,0.123920426,29.90130992,0
747.2662738,0.131008504,25.32224331,0
666.1698474,0.124946116,30.66587651,0
646.7117666,0.121067053,31.17364384,0
689.1590272,0.126828875,29.91696147,0
626.3455163,0.119220852,31.43171676,0
640.6479921,0.122659451,30.61952916,0
655.8513449,0.122456779,29.92777473,0
644.4795292,0.123547622,30.9661902,0
711.6755758,0.127301505,27.59414524,0
681.2979333,0.125986538,29.83532194,0
667.2017693,0.122321299,30.19166898,0
758.2055102,0.128882432,27.96855851,0
658.102138,0.125922927,29.44939707,0
683.0357119,0.12530337,30.71397412,0
717.1411005,0.125049394,27.96463626,0
667.8371101,0.124030978,30.28134518,0
723.4591659,0.129677841,26.36556829,0
775.7278496,0.130715274,26.51704608,0
658.1041957,0.126062313,28.31300061,0
634.7386261,0.122137622,31.55832004,0
724.7818187,0.125536823,28.39432674,0
680.3417667,0.125639982,28.49474612,0
709.9399022,0.125579266,28.845294,0
671.4725917,0.12791623,28.64615027,0
672.0340965,0.12352976,31.37850033,0
703.5007045,0.126373503,26.81992983,0
740.4991081,0.131890364,26.19223645,0
693.9263652,0.126100295,28.14717206,0
693.6012438,0.126476477,29.72514596,0
679.4133477,0.124577194,28.18698528,0
672.1980987,0.123429814,31.04097486,0
710.6126875,0.12545099,29.22697758,0
682.8304901,0.124037091,30.53132713,0
693.9750494,0.124989088,30.20973598,0
683.5372344,0.12305646,30.737337,0
705.6439949,0.124267762,30.59278701,0
709.2478266,0.124939265,31.26612592,0
705.8672747,0.124333341,29.99456512,0
596.1871854,0.122644791,30.08900167,0
690.9154273,0.125124071,30.4268963,0
750.7405086,0.128585294,26.83302923,0
642.6578384,0.123717571,30.19989583,0
688.5569002,0.1260692,30.25992257,0
731.1071328,0.126393961,27.48523807,0
651.9786579,0.122633786,30.52237774,0
647.0779139,0.128620969,25.20879161,0
744.013418,0.12987105,28.73779,0
618.5509249,0.119790792,29.8996273,0
557.9628886,0.147660675,7.202656878,0
634.231961,0.124639112,25.97749429,0
583.3418696,0.12246882,27.04387468,0
405.7737704,0.147061383,5.264516975,0
658.8284601,0.131821241,20.20419663,0
655.4231663,0.129756636,19.90179853,0
659.2852486,0.125087538,26.09258925,0
734.2526233,0.137895126,16.97963286,0
573.0797952,0.133966197,13.40059818,0
570.0608257,0.12081086,25.26363889,0
600.4644399,0.129153059,15.44130871,0
764.4630222,0.130561977,26.81775837,0
573.8859909,0.116450473,32.73944162,0
714.5763393,0.125459933,29.19299618,0
332.6204799,0.169836535,1.389644527,0
705.9292358,0.183668588,1.702311638,0
629.9562956,0.130809712,14.70501305,0
643.6406275,0.123043228,31.92339065,0
682.9876279,0.122974919,28.60719255,0
659.2171863,0.126419756,27.98932672,0
705.1653881,0.127682584,28.5952863,0
660.6311476,0.122401967,30.27407782,0
607.8387245,0.127761898,25.94990713,0
666.5692042,0.130670789,22.21718217,0
772.0594468,0.132762765,23.20158382,0
728.3795223,0.129538014,26.53619059,0
670.2191975,0.128947806,19.25089872,0
641.478358,0.126946309,19.62353794,0
655.2033219,0.126613764,27.11590303,0
681.9440141,0.124273011,28.2397505,0
591.945642,0.126797619,26.13029688,0
669.3214996,0.126131409,27.60528286,0
675.2940789,0.126543875,27.30864355,0
658.641029,0.130580006,25.1797449,0
607.3856252,0.125574486,28.43498583,0
706.3590861,0.12883274,25.9575405,0
561.1925896,0.125346021,20.61982226,0
720.2467265,0.129268899,23.79600588,0
504.2967678,0.119495783,24.45582546,0
869.378704,0.152947696,16.21686648,0
580.8406431,0.124158778,20.25945535,0
704.2951813,0.12825876,24.50717369,0
675.1359935,0.132365594,19.87867538,0
749.09355,0.136328538,20.57822442,0
709.0475286,0.129705008,25.13171922,0
624.0879487,0.125273205,27.35118643,0
703.7918984,0.13269909,21.52438788,0
622.4611803,0.123473021,27.2242669,0
708.1519149,0.131124545,24.20834594,0
617.5632221,0.123748326,27.88016142,0
650.221875,0.128086397,25.2333746,0
691.3571742,0.128993882,25.7111869,0
681.2241514,0.128797205,25.38146389,0
682.9148254,0.12654123,24.80985385,0
650.3603248,0.127471176,24.77121842,0
698.9101048,0.128718367,23.85572748,0
571.4059237,0.120643844,22.29729331,0
631.575726,0.126864948,21.52203734,0
585.1957184,0.126970938,20.85730087,0
600.1333397,0.123926944,25.02684737,0
653.6808736,0.126501481,24.07259478,0
683.5410739,0.123608673,27.80341868,0
659.1649349,0.127252951,28.52735966,0
787.7885599,0.148070588,15.18316387,0
576.4810758,0.123539884,24.05671642,0
542.4539385,0.117773355,31.83983596,0
696.4691782,0.123472553,28.88082004,0
600.2379445,0.118475023,31.428054,0
717.452288,0.126489587,29.80963254,0
654.6711509,0.125492408,30.00277088,0
648.8144703,0.123067924,31.41374874,0
558.9278106,0.123061228,23.09092504,0
498.069957,0.170386735,2.476368387,0
664.1622488,0.135885654,19.29276634,0
658.8316256,0.128901478,19.49643848,0
635.5647369,0.126722183,30.19257484,0
676.4081196,0.125315568,30.73589755,0
652.4912517,0.123556777,33.20482188,0
716.6632508,0.126101575,31.3695868,0
691.8023959,0.123124272,31.46003001,0
670.8639699,0.121203537,32.93115015,0
685.9784156,0.124558381,32.2776867,0
615.5680615,0.119820408,35.19323759,0
715.3030845,0.125609621,31.91897736,0
665.6514004,0.12327657,32.03378237,0
674.6432218,0.125735411,28.98860137,0
716.3909671,0.126372502,30.9082943,0
665.7114509,0.122880736,30.28481647,0
696.0048333,0.125637493,30.02704696,0
739.0231121,0.125596251,30.60103256,0
725.3338827,0.124914208,31.689783,0
667.8298204,0.121818171,31.89736522,0
707.4534214,0.124749472,29.19655321,0
679.1748012,0.121906979,31.59123183,0
667.3017496,0.122060466,32.66929514,0
726.1646949,0.124328619,30.90056599,0
668.6300587,0.121474427,32.1873615,0
679.6248085,0.123071427,32.43477189,0
738.3516679,0.125102914,30.49484574,0
580.2880824,0.12199076,30.1353742,0
651.4429818,0.121499458,32.59332737,0
668.617036,0.122275842,31.14999253,0
702.1989432,0.125763361,30.15321136,0
642.0115053,0.121938399,33.38864963,0
685.6481918,0.122909549,32.27890606,0
633.130062,0.119701104,32.11945606,0
537.1573158,0.115965506,34.8565614,0
720.0055231,0.125738837,30.58475818,0
613.0584968,0.120252622,34.36891453,0
734.8544188,0.126723572,29.84459414,0
566.7293063,0.115855822,32.73839914,0
625.3437747,0.122223169,30.40480448,0
709.8897203,0.125184674,31.23682551,0
675.4316057,0.123845404,32.95673555,0
695.5352129,0.126538729,30.58226714,0
683.2412287,0.124568267,31.25272287,0
645.9736259,0.124373895,31.32147239,0
652.9433744,0.121157087,33.3997617,0
718.0277675,0.12623758,30.25227562,0
617.7420201,0.122827594,31.93090483,0
656.1848423,0.124243689,30.89110522,0
735.3654096,0.127413981,29.5606294,0
622.2993579,0.125089872,29.89989804,0
654.8548754,0.12317853,31.15437196,0
682.0809469,0.123120049,30.17904181,0
708.2768079,0.125250254,31.62251184,0
752.1440008,0.126339537,30.00061144,0
713.264929,0.124501628,30.51324083,0
716.0339165,0.126756114,29.93480045,0
691.7391198,0.125676489,30.07584109,0
734.5597941,0.126365584,29.7843248,0
671.8038338,0.12240145,32.55414776,0
758.7569334,0.130125034,28.20253197,0
638.9476582,0.121865617,33.26544489,0
710.196195,0.124791228,30.8459231,0
671.8272036,0.123530641,31.04572652,0
731.7874945,0.124637867,29.68060867,0
644.1874353,0.120599335,32.82857874,0
688.254958,0.123077854,31.13265618,0
723.7396716,0.130809491,25.11124566,0
716.6778907,0.128338553,28.02847734,0
735.0384729,0.126049065,29.9028751,0
743.5266937,0.127076902,28.46567966,0
708.5820629,0.123773193,31.61981417,0
756.1431554,0.127316354,29.18399591,0
654.7889714,0.12149616,32.66382798,0
767.7412929,0.129635851,28.13075583,0
741.6960976,0.126450622,29.80260032,0
661.1889694,0.124846509,29.59278655,0
730.3851371,0.124470903,29.9973792,0
729.0156084,0.130797544,25.62461496,0
701.959875,0.126224681,28.44131756,0
555.3953475,0.118323015,29.18433036,0
725.4339712,0.126310802,26.87532391,0
589.1568495,0.12302972,28.54331187,0
712.6897845,0.126361151,31.46938914,0
720.1237808,0.126625446,29.14988516,0
679.3347327,0.124493273,31.41726126,0
719.6982279,0.128948367,25.50666761,0
694.2174479,0.124868846,29.72443394,0
677.1353597,0.121943247,29.37334691,0
693.9707838,0.125518103,28.91565742,0
730.4898457,0.126002282,30.17304853,0
654.2453027,0.123346795,30.44834399,0
623.2782632,0.120912872,31.97610171,0
711.1186425,0.124241011,29.35880586,0
656.2750639,0.122260441,31.96070896,0
759.8005786,0.130866904,27.42435956,0
727.281116,0.126653832,29.15013797,0
736.3932279,0.129985681,26.93958469,0
616.2104332,0.120694967,33.83935217,0
735.1622524,0.136024324,19.97717523,0
619.7784559,0.125284787,27.07798457,0
641.2042718,0.127032691,22.63401447,0
673.241481,0.124057785,29.14827958,0
673.3033378,0.125774392,31.10563605,0
746.338271,0.126349927,29.33611574,0
690.1713904,0.124641512,30.82124203,0
708.5626323,0.128168791,27.86572484,0
697.8309554,0.125937362,31.01642528,0
652.5352909,0.122706997,30.42979029,0
680.8929234,0.125417453,29.2858101,0
703.7533629,0.128522332,27.9532643,0
615.0512788,0.121334938,32.50478505,0
724.1332569,0.12662144,28.71872935,0
635.930172,0.122433405,32.47358136,0
673.2460994,0.123415022,31.13946357,0
744.5846517,0.12830051,29.41459284,0
607.9578559,0.119647175,33.65255101,0
733.0745214,0.127166251,29.06297274,0
625.6952246,0.121772884,32.50450663,0
741.6515568,0.126099187,29.2397974,0
691.0174895,0.127309935,29.25072278,0
676.249272,0.124683308,31.40019432,0
721.3825181,0.12932807,26.78724394,0
724.797323,0.1273768,29.81746163,0
663.2597645,0.121907053,32.11121216,0
727.902555,0.126769011,28.12853636,0
765.42572,0.129496078,27.87754719,0
709.2899317,0.125446955,28.48180755,0
715.043226,0.127911434,29.61450381,0
656.9416196,0.122450777,32.06786978,0
711.0117707,0.127574422,28.99399836,0
731.5799738,0.126679181,28.53317703,0
683.6555514,0.12388344,30.62593691,0
715.6977125,0.127269297,29.08903417,0
664.7202214,0.123645221,32.31531375,0
673.4754866,0.123369264,30.30926861,0
697.2148044,0.126893731,28.86313216,0
649.6568392,0.122279434,31.31962185,0
685.4361007,0.127104217,29.39642665,0
729.5992228,0.126567474,29.52731395,0
628.8313855,0.120442757,31.71760559,0
739.9939364,0.127115298,29.87509205,0
708.0288021,0.128310899,27.47195194,0
652.5667522,0.122231346,31.582358,0
671.1250616,0.123917261,30.9080199,0
636.7501256,0.124089883,29.77552866,0
662.3780156,0.121094342,30.75836497,0
702.2519705,0.124781633,30.40060518,0
675.2783446,0.122600793,30.1969473,0
661.348097,0.121599242,31.14055885,0
734.9010365,0.12655941,28.87612656,0
645.5839614,0.124233048,31.71433564,0
750.8727589,0.1304245,26.63867682,0
693.1253774,0.126066654,30.99934951,0
691.0398462,0.123883001,30.54849206,0
695.0956337,0.125345812,30.66845501,0
659.8966197,0.121046267,31.90871505,0
678.8347903,0.123684747,31.07437527,0
688.6570829,0.126543654,26.4363317,0
696.1681224,0.126475274,29.86684212,0
657.4441052,0.122078687,32.30214404,0
717.06125,0.12422541,29.77156394,0
621.3011339,0.119962059,32.64398684,0
703.0017601,0.126041244,29.68705438,0
715.8110783,0.127482032,27.60776421,0
671.9657622,0.123938558,31.78951981,0
701.7423193,0.12484776,29.57075736,0
705.841928,0.127402509,29.00459215,0
664.6125189,0.122181612,32.07637077,0
715.7033112,0.128245253,27.2762445,0
714.0272354,0.125775287,29.64040661,0
678.893295,0.124570426,31.38541307,0
707.9693741,0.127926789,28.48005413,0
740.8887512,0.127943715,29.65398728,0
637.7030477,0.119807885,32.62505144,0
699.7375036,0.124943772,31.46998555,0
765.6188791,0.128555983,29.15028698,0
621.0877877,0.122617968,29.58935505,0
710.4054977,0.126838292,30.72228235,0
737.9765332,0.127202946,29.21476796,0
654.9196202,0.124308326,29.54661102,0
682.7437068,0.123738711,31.59293729,0
667.8383169,0.122205578,31.02478095,0
606.9980214,0.120904124,33.94964928,0
700.3840374,0.125223553,29.70851066,0
610.6720867,0.119620818,33.4432586,0
666.5574867,0.125517406,29.38027602,0
710.9627394,0.126920949,30.40719474,0
645.5611615,0.122168451,32.38999235,0
688.2205597,0.124765237,29.40686981,0
647.7197419,0.124574154,30.36859789,0
597.0252635,0.119856563,34.36250739,0
703.4062368,0.124097272,30.61380257,0
716.5782801,0.128818379,28.10359589,0
658.0078194,0.124067585,31.37319086,0
684.3080415,0.123561747,29.70503198,0
726.2715486,0.125913485,29.97930689,0
631.7715697,0.118624312,32.8036425,0
614.6777104,0.119153409,32.66776742,0
752.1585435,0.128134908,28.58717017,0
675.3639704,0.125689867,29.99134449,0
714.2175,0.124584593,30.22944727,0
720.8808034,0.126288194,31.21367679,0
682.0942129,0.124643039,31.22402089,0
645.4895578,0.12129062,32.90691718,0
688.0667335,0.122492616,30.90101466,0
679.9546532,0.126405441,29.23622581,0
745.6010679,0.128415897,29.68711406,0
690.3806708,0.122992563,31.32404953,0
651.7810367,0.122532879,30.80167863,0
641.8964055,0.121378755,32.60383466,0
700.3817067,0.127257586,28.49136274,0
702.7898366,0.125508227,30.83654368,0
725.481243,0.128321213,28.56050929,0
679.0785716,0.123863333,31.18249678,0
644.5140455,0.122756136,30.13952932,0
663.3652214,0.122558626,30.94718671,0
654.6085187,0.126209245,27.31764455,0
697.7875341,0.125995021,29.60680331,0
727.1893987,0.129502873,27.09041706,0
695.5495901,0.124657991,30.03752429,0
676.5375511,0.124584064,30.27542902,0
619.3196926,0.123750696,31.59544373,0
753.0320289,0.125970734,29.58577213,0
705.9615143,0.127489733,28.40269612,0
677.2249407,0.123609887,31.06710111,0
765.7560075,0.128323091,28.54133106,0
605.7106394,0.12182214,33.87931766,0
689.8115219,0.124470215,30.96923829,0
758.3927582,0.127935489,28.87697795,0
666.1621345,0.122930331,31.48396576,0
717.1126251,0.127946385,26.37831135,0
633.1117583,0.124112031,28.14808424,0
712.3484744,0.126221165,30.07849868,0
684.4704096,0.125601152,30.97838819,0
723.214129,0.126957515,29.82567803,0
673.3628272,0.127844151,28.11705398,0
668.500548,0.123094454,32.2989934,0
717.2162678,0.126153935,29.49128171,0
654.9395581,0.122885417,31.97635311,0
650.7422179,0.12576019,26.65423995,0
658.3448496,0.125988881,25.04051995,0
434.2990798,0.127144155,14.72953341,0
553.225456,0.203336334,-0.310050215,0
682.4581672,0.158528139,6.772262154,0
677.013512,0.126231617,29.79491392,0
694.0925592,0.125364332,29.69478274,0
667.4682539,0.125434621,26.52168161,0
667.1840095,0.124190585,31.30461094,0
734.2757251,0.128175083,28.6021817,0
652.070999,0.123700179,32.99121567,0
664.3939713,0.124729366,31.17892214,0
703.190569,0.128063217,30.52313907,0
695.034063,0.125341138,31.46057464,0
664.8190025,0.12338602,32.15039518,0
691.5416502,0.124451916,30.58570818,0
682.7363321,0.123364505,30.18876452,0
649.5517418,0.120805209,31.30249573,0
727.376458,0.127883025,29.63548165,0
736.9818603,0.127050622,28.48386101,0
596.2364917,0.119825364,34.2101211,0
706.7496299,0.124978123,30.01948057,0
713.3993368,0.125990684,29.62972525,0
608.0587953,0.120967009,32.86308528,0
708.6655436,0.125536032,29.65189937,0
581.9485762,0.12293459,27.37051681,0
677.9562385,0.129509884,27.21525123,0
692.4241625,0.126227161,28.72823861,0
612.4079279,0.12265205,30.13416179,0
701.6788354,0.135028437,16.72341199,0
590.2403028,0.120815046,32.23054152,0
706.7958526,0.136335706,20.50106955,0
709.5358343,0.128219273,28.57769638,0
684.8546495,0.122407671,29.94486515,0
598.6095409,0.121833004,29.01063039,0
688.2816209,0.127839151,25.88563384,0
660.0325459,0.126577489,24.70358069,0
655.7075542,0.126708931,28.69009827,0
689.934027,0.124160836,31.43922689,0
669.7910927,0.12280419,32.32166792,0
695.6281937,0.125668682,31.48846243,0
651.6846064,0.121337476,32.39251363,0
665.4696507,0.123045474,32.07165416,0
724.1583881,0.125091259,30.25108689,0
653.343186,0.122730556,33.31696815,0
668.0447425,0.122506526,31.86463927,0
677.6267629,0.123912623,32.26765364,0
679.3818527,0.122592466,32.00459716,0
719.3338697,0.125477858,30.35884622,0
736.1014833,0.126627972,29.95219205,0
654.0813018,0.125060119,30.28968037,0
709.6131441,0.125924507,31.59432377,0
691.0405747,0.123504903,30.26377545,0
643.703228,0.120502768,32.64447491,0
624.3272852,0.122777193,33.86848906,0
728.1247961,0.124737183,30.2425713,0
707.5389621,0.126186232,29.90842058,0
736.1478432,0.128505451,28.0543749,0
724.383529,0.126081341,29.83247433,0
687.6990092,0.124567015,30.75363697,0
725.3262485,0.126542148,31.05927003,0
710.6497669,0.124928429,30.72860748,0
736.3600789,0.126272581,30.8718685,0
717.3020968,0.124706982,31.06120409,0
626.20849,0.120581083,33.74448698,0
616.8779457,0.122482475,34.32559064,0
724.9078231,0.12435181,30.69437612,0
650.6745489,0.123600798,33.62411105,0
676.0578229,0.123505322,31.53789237,0
738.6727826,0.127750771,31.07927338,0
409.4329441,0.16190056,2.227194391,0
